th1 (rad),w1 (rad/s),th2 (rad),w2 (rad/s),a1 (rad/s^2),a2 (rad/s^2)
3.1737035292302163,2.9244604389797217,0.8325323765148674,1.0530644616561204,-0.6205314011529183,-1.5429169199116768
3.2029481336200134,2.9182551249681925,0.8430630211314286,1.0376352924570036,-0.328830241972837,-1.5512720644338505
3.2321306848696953,2.914966822548464,0.8534393740559987,1.0221225718126652,-0.02947207288612095,-1.5344212563037791
3.26128035309518,2.914672101819603,0.8636605997741253,1.0067783592496273,0.27779233930440606,-1.4926516706245747
3.290427074113376,2.917450025212647,0.8737283833666216,0.9918518425433815,0.5932277086578753,-1.4262484769299835
3.3196015743655027,2.923382302299226,0.8836469017920554,0.9775893577740817,0.917107475735911,-1.3355071021266813
3.348835397388495,2.932553377056585,0.8934227953697962,0.964234286752815,1.249704178378364,-1.2207496062342758
3.378160931159061,2.9450504188403688,0.9030651382373244,0.9520267906904722,1.5912766319227916,-1.0823457804690813
3.4076114353474645,2.9609631851595966,0.9125854061442291,0.9412033328857814,1.9420535572260191,-0.9207396398283801
3.4372210671990606,2.9803837207318566,0.9219974394730869,0.9319959364874976,2.30221325586261,-0.7364820368419082
3.467024904406379,3.0034058532904826,0.9313173988379618,0.9246311161190784,2.6718589052891386,-0.5302701604305091
3.497058962939284,3.030124442343374,0.9405637099991526,0.9193284145147733,3.0509890396045845,-0.3029946919466443
3.5273602073627175,3.06063433273942,0.9497569941443004,0.9162984675953069,3.4394628026374394,-0.05579535435718608
3.5579665506901117,3.095028960765794,0.9589199788202535,0.915740514051735,3.8369596202001914,0.20987450848827632
3.58891684029777,3.133398556967796,0.9680773839607708,0.9178392591366177,4.24293305008442,0.4921738697576169
3.6202508258674477,3.1758278874686403,0.977255776552137,0.9227609978341939,4.6565587458970095,0.7887903169402338
3.652009104742134,3.2223934749276104,0.986483386530479,0.9306489010035962,5.076676729224158,1.0968469845906799
3.6842330394914105,3.273160242219852,0.9957898755405149,0.941617370849503,5.501728518701866,1.4128009999691327
3.716964641913609,3.328177527406871,1.00520604924901,0.9557453808491944,5.929690127366745,1.7323351150034596
3.7502464171876775,3.3874744286805383,1.014763503057502,0.9730687319992289,6.358002520159982,2.0502452098393897
3.784121161474483,3.451054453882138,1.0244941903774942,0.9935711840976228,6.783501824114835,2.360327591918517
3.818631706013304,3.5188894721232864,1.0344299022184704,1.017174460016808,7.20235239779606,2.655271475037164
3.853820600734537,3.590912996101247,1.0446016468186385,1.0437271747671797,7.609986775600613,2.9265636783998503
3.8897297306955494,3.6670128638572534,1.0550389185663103,1.0729928115511782,8.001057475145366,3.164414382390025
3.926399859334122,3.747023438608707,1.065768846681822,1.1046369553750786,8.369406647795085,3.357714630845907
3.963870093720209,3.8307175050866578,1.0768152162355729,1.1382141016835376,8.708060508210286,3.4940380619755564
4.002177268771075,3.9177981101687607,1.0881973572524082,1.1731544823032931,9.009256336466454,3.559700933566739
4.041355249872763,4.007890673533425,1.099928902075441,1.2087514916389606,9.264510541166414,3.5398957066094927
4.081434156608097,4.10053577894509,1.1120164169918307,1.2441504487050554,9.464736739121532,3.4189140621835468
4.122439514397548,4.195183146336305,1.1244579214788812,1.278339589326891,9.600422977028824,3.1804750159952806
4.164391345860911,4.291187376106593,1.13724131737215,1.3101443394868437,9.661877002403353,2.8081724824741725
4.207303219621977,4.387806146130626,1.1503427607670185,1.3382260643115855,9.63954773982334,2.28605386431434
4.251181281083284,4.484201623528859,1.1637250214101342,1.3610866029547288,9.52442959450376,1.599336512420774
4.296023297318572,4.579445919473897,1.1773358874396815,1.3770799680789365,9.308553474089402,0.7352615434019203
4.341817756513311,4.67253145421479,1.191106687120471,1.3844325835129556,8.98556386624239,-0.31592635423905563
4.38854307105546,4.762387092877215,1.2049510129556005,1.3812733199705651,8.551374105470662,-1.5598998466911855
4.436166941984232,4.847900833931921,1.218763746155306,1.3656743215036533,8.004881194613631,-2.9971180682605922
4.484645950323551,4.927949645878058,1.2324204893703425,1.3357031408210474,7.348706511580834,-4.621717764043424
4.533925446782331,5.0014367109938656,1.245777520778553,1.289485963180613,6.589909450248894,-6.42053123977142
4.58393981389227,5.067335805496355,1.2586723804103592,1.2252806507828988,5.740598961527207,-8.372367909559335
4.634613171947233,5.1247417951116265,1.2709251869181881,1.1415569716873055,4.818346680871242,-10.447722606248503
4.68586058989835,5.172925261920339,1.282340756635061,1.0370797456248204,3.846291033297758,-12.609084354157538
4.737589842517553,5.211388172253317,1.2927115540913092,0.910988902083245,2.8528227446335968,-14.812001482638797
4.789703724240087,5.239916399699653,1.3018214431121418,0.762868887256857,1.8707673114971575,-17.00700118585732
4.842102888237084,5.258624072814625,1.3094501319847103,0.5927988753982838,0.9360350488775456,-19.142358582875207
4.89468912896523,5.2679844233034006,1.3153781207386932,0.4013752895695317,0.08579307287091513,-21.16756913342908
4.947368973198264,5.26884235403211,1.3193918736343886,0.18969959823524093,-0.6436858744340257,-23.03722270556709
5.000057396738585,5.262405495287769,1.321288869616741,-0.04067262882042996,-1.2192481962355954,-24.71484665161692
5.052681451691463,5.250213013325413,1.3208821433285367,-0.28782109533659916,-1.6128481044973415,-26.176223527562122
5.105183581824717,5.2340845322804395,1.3180039323751707,-0.5495833306122204,-1.802989504402271,-27.411730478108236
5.157524427147521,5.216054637236417,1.3125080990690485,-0.8237006353933027,-1.7753780599206563,-28.427398235683178
5.209684973519885,5.198300856637211,1.3042710927151155,-1.1079746177501346,-1.5226638744799679,-29.244619014496394
5.261667982086258,5.183074217892411,1.2931913465376141,-1.4004208078950986,-1.0433017529706967,-29.898686616430613
5.313498724265182,5.172641200362704,1.279187138458663,-1.6994076740594046,-0.33968423797608,-30.436563276445884
5.365225136268809,5.169244357982943,1.262193061718069,-2.0037733068238635,0.5842219133683327,-30.914387728507865
5.416917579848639,5.175086577116626,1.2421553286498304,-2.312917184108942,1.7254981404217815,-31.395253049950387
5.468668445619805,5.192341558520844,1.219026156808741,-2.626869714608446,3.0849733517284266,-31.947711295080406
5.5205918612050136,5.223191292038128,1.1927574596626567,-2.9463468275592497,4.669915021081552,-32.64534672559748
5.5728237741253945,5.269890442248943,1.1632939913870641,-3.2728002948152244,6.496738525408822,-33.56764482680725
5.625522678547884,5.334857827503032,1.1305659884389119,-3.6084767430832967,8.59386188156221,-34.80229895713344
5.678871256822914,5.420796446318654,1.094481221008079,-3.956499732654631,11.004898494619953,-36.449039154608236
5.733079221286101,5.530845431264853,1.0549162236815326,-4.320990124200714,13.792371578615962,-38.62498789252333
5.78838767559875,5.668769147051013,1.0117063224395255,-4.707240003125947,17.041955194433903,-41.47129828609072
5.84507536706926,5.839188698995352,0.9646339224082661,-5.121952985986854,20.86664390368164,-45.16003609446658
5.903467254059214,6.047855138032169,0.9134143925483975,-5.57355334693152,25.40855374444435,-49.89797243174101
5.963945805439535,6.3019406754766125,0.8576788590790823,-6.07253307124893,30.831513955989948,-55.91770848952244
6.026965212194302,6.610255815036512,0.796953528366593,-6.6317101561441545,37.285765129405384,-63.430122130979115
6.093067770344667,6.983113466330566,0.7306364268051514,-7.266011377453946,44.79612388629705,-72.47036422293752
6.162898905007973,7.431074705193536,0.657976313030612,-7.990715019683321,52.95443901677468,-82.47097858948835
6.237209652059908,7.960619095361283,0.5780691628337787,-8.815424805578205,60.163408319083985,-91.20806444964778
6.316815843013521,8.562253178552123,0.4899149147779967,-9.727505450074682,62.11269639111312,-92.67220207849041
6.4024383747990425,9.183380142463253,0.3926398602772499,-10.654227470859587,50.19174906106352,-74.8472901764878
6.494272176223675,9.685297633073889,0.28609758556865406,-11.402700372624464,15.31909090235467,-25.071460552776855
6.591125152554414,9.838488542097435,0.17207058184240942,-11.653414978152233,-35.02056996252668,46.130991501848364
6.6895100379753885,9.488282842472168,0.0555364320608871,-11.192105063133749,-70.95502195525413,97.02692647021914
6.78439286640011,8.778732622919627,-0.05638461857045039,-10.221835798431558,-77.95089742518232,107.47521738979233
6.8721801926293065,7.999223648667804,-0.15860297655476596,-9.147083624533634,-68.9428180035694,95.60905669042756
6.9521724291159845,7.309795468632109,-0.2500738128001023,-8.190993057629358,-56.820284474796495,79.37162143451864
7.025270383802305,6.741592623884144,-0.3319837433763959,-7.397276843284171,-46.20467321392202,65.16929905174945
7.092686310041147,6.279545891744924,-0.40595651180923764,-6.745583852766677,-37.81766069433519,53.99634895268804
7.155481768958596,5.9013692848015715,-0.47341235033690443,-6.205620363239796,-31.3417381428484,45.410944418772914
7.214495461806612,5.587951903373088,-0.5354685539693024,-5.751510919052067,-26.32789525998159,38.790456671603195
7.270374980840343,5.324672950773272,-0.5929836631598231,-5.363606352336035,-22.403801678168225,33.61742831046496
7.323621710348076,5.10063493399159,-0.6466197266831835,-5.027432069231385,-19.29456597477756,29.507139632496376
7.374628059687992,4.907689274243815,-0.6968940473754973,-4.732360672906421,-16.8038710736685,26.181015060732758
7.42370495243043,4.73965056350713,-0.7442176541045615,-4.470550522299094,-14.79248669317382,23.436749002945447
7.471101458065502,4.591725696575391,-0.7889231593275525,-4.23618303226964,-13.161494227486822,21.125169972300405
7.517018715031256,4.460110754300524,-0.8312849896502489,-4.024931332546636,-11.840343568241252,19.13400396491867
7.561619822574261,4.341707318618111,-0.8715343029757152,-3.833591292897449,-10.778514860479891,17.376906498257775
7.605036895760442,4.2339221700133125,-0.9098702159046897,-3.6598222279148716,-9.939612797517704,15.786246950253544
7.647376117460575,4.134526042038136,-0.9464684381838384,-3.5019597584123363,-9.297018116209061,14.308552004678956
7.688721377880956,4.041555860876045,-0.9814880357679617,-3.3588742383655465,-8.830493812680736,12.901871189706883
7.7291369364897164,3.9532509227492376,-1.0150767781516172,-3.229855526468478,-8.52335810576442,11.53455456728302
7.768669445717209,3.8680173416915933,-1.047375333416302,-3.114509980795648,-8.360010535714789,10.185040057323707
7.807349619134125,3.7844172363344453,-1.0785204332242586,-3.0126595802224108,-8.323752593946196,8.842259020082496
7.845193791497469,3.7011797103949835,-1.1086470290264827,-2.9242369900215857,-8.394987788040211,7.50621505671512
7.882205588601419,3.6172298325145813,-1.1378893989266985,-2.8491748394544345,-8.550006573709327,6.188219037192584
7.918377886926565,3.531729766777488,-1.1663811473212429,-2.7872926490825085,-8.760627816353546,4.910238175588241
7.9536951845943396,3.4441234886139527,-1.194254073812068,-2.738190267326626,-8.994938459322407,3.702911421398613
7.988136419480479,3.3541741040207285,-1.2216359764853342,-2.70116115311264,-9.219216439832953,2.6020479855093446
8.021678160520686,3.261981939622399,-1.2486475880164605,-2.6751406732575465,-9.400849657180213,1.6438464931562229
8.05429797991691,3.167973443050597,-1.2753989947490358,-2.6587022083259844,-9.511749321296056,0.8595423783039283
8.085977714347417,3.0728559498376367,-1.3019860168322956,-2.650106784542945,-9.531523858434898,0.2705300762602652
8.116706273845793,2.9775407112532877,-1.328487084677725,-2.6474014837803423,-9.449652899312476,-0.11496149671915477
8.146481680958326,2.883044182260163,-1.3549610995155283,-2.648551098747534,-9.266129286110864,-0.3029024119397845
8.175312122780927,2.790382889399054,-1.3814466105030037,-2.651580122866932,-8.990452861695864,-0.3120741720506812
8.203215951674917,2.7004783607820952,-1.407962411731673,-2.6547008645874386,-8.639302372720582,-0.17076819169752383
8.230220735282737,2.6140853370548895,-1.4345094203775473,-2.656408546504414,-8.233511207596957,0.08750210663776184
8.256361588653286,2.53175022497892,-1.4610735058425914,-2.6555335254380363,-7.7950377108504165,0.42827074120923997
8.281679090903076,2.4537998478704157,-1.4876288410969718,-2.651250818025944,-7.344473223697047,0.8195930276920608
8.30621708938178,2.3803551156334453,-1.5141413492772313,-2.6430548877490234,-6.8993721778850245,1.2343282208886184
8.330020640538114,2.311361393854595,-1.5405718981547216,-2.6307116055401374,-6.473433157769065,1.6512043642347598
8.353134254476661,2.2466270622769042,-1.566879014210123,-2.61419956189779,-6.076383161708478,2.0548890582783708
8.37560052509943,2.1858632306598196,-1.5930210098291009,-2.593650671315006,-5.7143398427054,2.4353952583075738
8.397459157406027,2.1287198322327656,-1.618957516542251,-2.5692967187319304,-5.390428743234153,2.7871425996112515
8.418746355728356,2.074815544800424,-1.6446504837295703,-2.541425292735818,-5.105479584974379,3.107923642406697
8.43949451117636,2.0237607489506804,-1.6700647366569286,-2.510346056311751,-4.858686204736348,3.3979359913743155
8.459732118665867,1.9751738869033169,-1.695168197220046,-2.4763666963980078,-4.648169023900919,3.658963277643689
8.4794838575349,1.9286921966643076,-1.7199318641840262,-2.439777063621571,-4.471418711468184,3.8937317088678918
8.498770779501543,1.8839780095496257,-1.744329634820242,-2.400839746532892,-4.3256243199105135,4.1054346418273
8.517610559597038,1.8407217663505206,-1.7683380322855708,-2.359785400114619,-4.207901676671397,4.297400708897296
8.536017777260543,1.7986427495838067,-1.791935886286717,-2.3168113930256458,-4.115442144298822,4.472875624563679
8.554004204756382,1.7574883281408185,-1.8151040002169734,-2.272082636780009,-4.045601453296283,4.634888952844086
8.57157908803779,1.7170323136078556,-1.8378248265847734,-2.225733747251568,-3.9959456302452034,4.7861813242744935
8.588749411173868,1.6770728573054035,-1.860082164057289,-2.1778719340088233,-3.9642676280798614,4.929172697696142
8.605520139746922,1.6374301810246048,-1.8818608833973773,-2.128580207031862,-3.948584951288616,5.065957119936542
8.621894441557169,1.5979443315117186,-1.903146685467696,-2.077920635832496,-3.9471257313673513,5.198313548450204
8.637873884872286,1.558473074198045,-1.923925891826021,-2.025937500347994,-3.9583084542996496,5.327725543025669
8.653458615614268,1.5188899896550485,-1.9441852668295008,-1.9726602449177373,-3.9807188427773936,5.45540506326619
8.668647515510818,1.4790828012272745,-1.9639118692786781,-1.9181061942850754,-4.013086164995515,5.5823173629732565
8.683438343523092,1.4389519395773194,-1.9830929312215289,-1.862283020655343,-4.054260379512,5.709205198809392
8.697827862918865,1.3984093357821994,-2.0017157614280823,-1.805190968667249,-4.103190939773467,5.8366114024255795
8.711811956276687,1.3573774263844647,-2.0197676711147547,-1.7468248546429932,-4.15890769588042,5.964899412076949
8.725385730540532,1.3157883494256606,-2.037235919661185,-1.6871758605222238,-4.220504085180181,6.094271705942696
8.73854361403479,1.2735833085738588,-2.054107678266407,-1.6262331434627968,-4.287122652527602,6.224786287201684
8.751279447120528,1.2307120820485828,-2.070370009701035,-1.56398528059078,-4.357942853023461,6.356371484980821
8.763586567941013,1.1871326535183482,-2.086009862506943,-1.5004215657409716,-4.4321710417154,6.488839386725905
8.775457894476197,1.1428109431011941,-2.1010140781643525,-1.4355331718737125,-4.509032530224919,6.621898227671282
8.78688600390721,1.097720617798945,-2.1153694098830895,-1.3693141895969998,-4.587765578846781,6.755164046311898
8.797863210085199,1.051842962010477,-2.1290625517790596,-1.301762549133881,-4.667617187411825,6.888171880795073
8.808381639705303,1.0051667901363588,-2.1420801772703983,-1.2328808303259302,-4.7478405448598995,7.0203867365191
8.818433307606666,0.9576883846877597,-2.1544089855736575,-1.1626769629607392,-4.827693993709287,7.151214504546061
8.828010191453544,0.9094114447506668,-2.1660357552032647,-1.0911648179152786,-4.906441360470592,7.280012957102467
8.83710430590105,0.8603470311459609,-2.1769474033824174,-1.018364688344254,-4.983353496525124,7.406102893145545
8.84570777621251,0.8105134961807097,-2.18713105026586,-0.9443036594127986,-5.057710866689159,7.528779455991944
8.853812911174318,0.7599363875138181,-2.1965740868599877,-0.8690158648528792,-5.128807015606964,7.647323598331877
8.861412275049457,0.7086483173577485,-2.2052642455085163,-0.7925426288695604,-5.195952736394554,7.761013629305313
8.868498758223033,0.656688789993803,-2.213189671797212,-0.7149324925765073,-5.258480762690613,7.869136745099487
8.875065646122971,0.6041039823668969,-2.220338996722977,-0.6362411251255123,-5.315750805355555,7.971000419724548
8.88110668594664,0.5509464743133413,-2.226701407974232,-0.5565311209282668,-5.367154759063941,8.06594351672104
8.886616150689774,0.4972749267227019,-2.2322667191835146,-0.47587168576105643,-5.412121912126304,8.153346975468292
8.891588899957,0.44315370760143885,-2.237025436041125,-0.39433821600637353,-5.450124004792054,8.23264392683562
8.896020437033014,0.38865246755351834,-2.2409688182011887,-0.31201177673801733,-5.480679996369789,8.303329100966069
8.899906961708549,0.3338456675898205,-2.244088935968569,-0.22897848572835663,-5.503360418786475,8.364967403412088
8.903245418384447,0.27881206340195575,-2.2463787208258523,-0.14532881169423575,-5.517791212548411,8.417201552832639
8.906033539018466,0.22363415127647163,-2.247832008942795,-0.06115679616590937,-5.523656959296345,8.459758692169483
8.90826988053123,0.16839758168350816,-2.248443576904454,0.023440790755785465,-5.5207034422386005,8.49245590400243
8.909953856348066,0.11319054726112215,-2.248209168996896,0.10836534979580977,-5.508739480960513,8.515204578388703
8.911085761820678,0.05810315245151703,-2.2471255154989382,0.1935173955796968,-5.48763800009407,8.528013597199013
8.911666793345193,0.003226772450576329,-2.2451903415431413,0.27879753155168696,-5.457336302170676,8.530991312638747
8.9116990610697,-0.05134659057113043,-2.2424023662276245,0.36410744467807443,-5.417835524168614,8.524346309714538
8.911185595163987,-0.10552494581281657,-2.2387612917808437,0.4493509077752198,-5.369199265622683,8.508386953732755
8.91013034570586,-0.1592169384690434,-2.2342677827030917,0.5344347773125473,-5.3115513846947575,8.483519735606203
8.90853817632117,-0.21233245231599096,-2.2289234349299663,0.6192699746686093,-5.245072968331635,8.450246440910078
8.90641485179801,-0.2647831819993073,-2.2227307351832803,0.7037724390777101,-5.169998494423273,8.409160184149625
8.903767019978016,-0.31648316694354,-2.2156930107925032,0.7878640409192064,-5.0866112182697485,8.360940368007409
8.90060218830858,-0.3673492791262375,-2.207814370383311,0.8714734445992804,-4.995237832803464,8.306346648261957
8.896928695517317,-0.4173016574542721,-2.1990996359373183,0.9545369110819,-4.8962424715691855,8.246212007778059
8.892755678942775,-0.46626408216996396,-2.1895542668264993,1.0369990311596806,-4.79002014469376,8.181435066001935
8.888093038121076,-0.5141642836169016,-2.1791842765149023,1.1188133818197,-4.676989719913923,8.112971771779067
8.882951395284907,-0.5609341808160409,-2.167996142696705,1.1999430995374907,-4.557586581948191,8.041826644755576
8.877342053476747,-0.6065100466355228,-2.1559967117013303,1.2803613659850464,-4.432255122907162,7.969043741737378
8.871276953010392,-0.6508325978645944,-2.14319309804148,1.36005180340242,-4.30144123307927,7.895697526903096
8.864768627031747,-0.6938470101953871,-2.1295925800074555,1.439008778671451,-4.165584974777649,7.8228838167503065
8.857830156929793,-0.7355028599431636,-2.115202492220741,1.517237616838954,-4.025113632033002,7.75171095058101
8.850475128330363,-0.7757539962634936,-2.1000301160523516,1.5947547263447641,-3.8804353364940125,7.683291304137641
