th1 (rad),w1 (rad/s),th2 (rad),w2 (rad/s),a1 (rad/s^2),a2 (rad/s^2)
3.49092424626074,2.4902499732433854,0.9063919642238502,-2.11763872994219,0.4467527586168104,-4.057566070448373
3.5158267459931736,2.4947175008295535,0.8852155769244282,-2.1582143906466738,0.7465984581109728,-3.890915924421978
3.540773921001469,2.5021834854106633,0.8636334330179615,-2.1971235498908936,1.084450117597274,-3.6759945509620473
3.5657957558555755,2.513027986586636,0.8416621975190526,-2.233883495400514,1.4633235303658176,-3.4102355528642385
3.590926035721442,2.5276612218902943,0.8193233625650475,-2.2679858509291564,1.8849166733177538,-3.09301038533936
3.616202647940345,2.5465103886234717,0.7966435040557559,-2.29891595478255,2.3490077854913562,-2.726491090427378
3.6416677518265796,2.570000466478385,0.7736543445079304,-2.326180865686824,2.852833732169348,-2.3165451679118476
3.6673677564913634,2.5985288038000784,0.7503925358510621,-2.3493463173659426,3.3905486680400916,-1.8735235652619981
3.6933530445293643,2.632434290480479,0.7268990726774027,-2.3680815530185626,3.9528990234363346,-1.4127514888719301
3.719677387434169,2.6719632807148423,0.7032182571472171,-2.382209067907282,4.527267198940339,-0.954507251286002
3.7463970202413175,2.717235952704246,0.6793961664681443,-2.391754140420142,5.098214607402814,-0.5233026839270698
3.77356937976836,2.768218098778274,0.6554786250639428,-2.3969871672594127,5.64858194006509,-0.1463784556501975
3.8012515607561426,2.824703918178925,0.6315087533913487,-2.3984509518159145,6.161084195982796,0.14850479931075766
3.829498599937932,2.886314760138753,0.6075242438731896,-2.396965903822807,6.620197355101348,0.33570027516411877
3.8583617475393193,2.9525167336897664,0.5835545848349615,-2.393608901071166,7.0140200636657655,0.3942910396148964
3.887886914876217,3.0226569343264242,0.5596184958242498,-2.389665990675017,7.335756992772957,0.3101872521695684
3.9181134842194814,3.096014504254154,0.5357218359174997,-2.3865641181533213,7.584536774711717,0.07728860726455751
3.9490736292620228,3.171859872001271,0.5118561947359664,-2.385791232080676,7.765431417565778,-0.3024938231262597
3.9807922279820356,3.249514186176929,0.4879982824151597,-2.388816170311938,7.888732992155757,-0.8202988268173181
4.0132873698438045,3.3284015160984866,0.46411012071204033,-2.3970191585801115,7.968701724153611,-1.4621764484927582
4.046571385004789,3.4080885333400226,0.4401399291262392,-2.4116409230650393,8.022080349682222,-2.211346705023922
4.080652270338189,3.4883093368368447,0.41602351989558883,-2.4337543901152787,8.06666209101234,-3.050456168244027
4.115535363706558,3.568975957746968,0.39168597599443605,-2.464258951797719,8.120126664596274,-3.9635306748285477
4.151225123284028,3.6501772243929307,0.36704338647645884,-2.5038942585460044,8.19925881202405,-4.937462317750931
4.187726895527957,3.7321698125131713,0.3420044438909988,-2.553268881723514,8.319571900750153,-5.963002241804388
4.225048593653089,3.8153655315206727,0.3164717550737637,-2.6128989041415576,8.495295618594223,-7.035328186406648
4.2632022489682955,3.900318487706615,0.2903427660323481,-2.683252186005624,8.739656571238912,-8.154309305426299
4.302205433845361,3.987715053419004,0.26351024417229185,-2.764795279059887,9.065378122154845,-9.324607702324322
4.342082584379551,4.078368834640552,0.23586229138169298,-2.85804135608313,9.485341474759664,-10.555749917227711
4.382866272725957,4.173222249388149,0.2072818778208617,-2.963598855255407,10.013374788831893,-11.86228574616038
4.424598495219839,4.273355997276468,0.17764588926830763,-3.082221712717011,10.66516482841652,-13.26413636684443
4.467332055192603,4.380007645560633,0.1468236721411375,-3.214863076385455,11.459313023434927,-14.787224834666933
4.51113213164821,4.494600775794983,0.11467504137728296,-3.3627353247321246,12.418583723866398,-16.464482008572933
4.55607813940616,4.618786613033647,0.08104768812996171,-3.5273801448178537,13.571416152111164,-18.337328863556692
4.602266005536496,4.754500774554758,0.04577388668178318,-3.7107534334534207,14.953790450827022,-20.457746122443076
4.649811013282044,4.904038679063029,0.008666352347248968,-3.9153308946778513,16.611542915900177,-22.891038313836162
4.698851400072674,5.070154108222031,-0.030486956599529547,-4.144241277816213,18.603189393015185,-25.719341741637052
4.749552941154894,5.256186002152183,-0.07192936937769168,-4.401434695232584,21.003169931515895,-29.045715372731358
4.802114801176415,5.466217701467341,-0.11594371633001752,-4.691891848959897,23.90499964802097,-32.99804645015033
4.856776978191089,5.705267697947551,-0.1628626348196165,-5.0218723134614,27.422674773730034,-37.730400130853425
4.913829655170565,5.9794944456848516,-0.2130813579542305,-5.399176314769934,31.685797372343483,-43.41538182981645
4.9736245996274135,6.2963524194082865,-0.2670731211019298,-5.833330133068099,36.81673982987841,-50.21104227506938
5.036588123821496,6.66451981770707,-0.3254064224326108,-6.335440555818793,42.86101997883534,-58.161763643684935
5.103233321998567,7.093130017495424,-0.38876082799079875,-6.9170581922556424,49.60346603060119,-66.93835974002033
5.174164622173521,7.589164677801436,-0.4579314099133552,-7.586441789655845,56.130159192916594,-75.22065376375781
5.2500562689515355,8.150466269730602,-0.5337958278099136,-8.338648327293424,59.93538584824817,-79.44051819752109
5.331560931648841,8.749820128213084,-0.6171823110828478,-9.133053509268635,55.718020135573326,-72.08924695642969
5.419059132930972,9.307000329568817,-0.7085128461755341,-9.853945978832932,36.052389221910495,-42.66477526821883
5.51212913622666,9.667524221787922,-0.8070523059638635,-10.28059373151512,-0.5785888920579706,11.019788957240383
5.608804378444539,9.661738332867342,-0.9098582432790147,-10.170395841942716,-38.49925423681248,66.95211108479255
5.705421761773213,9.276745790499218,-1.0115622016984418,-9.50087473109479,-57.44650551879379,96.60460303143199
5.798189219678205,8.70228073531128,-1.1065709490093898,-8.53482870078047,-56.94500623539362,99.15562583429261
5.885212027031318,8.132830672957343,-1.1919192360171944,-7.5432724424375435,-48.01378717243877,89.93260766532697
5.966540333760891,7.652692801232956,-1.26735196044157,-6.643946365784274,-37.86985938600793,79.01943953090488
6.043067261773221,7.273994207372876,-1.3337914240994126,-5.8537519704752246,-28.91790371316651,69.80776283122789
6.115807203846949,6.984815170241212,-1.3923289438041648,-5.155674342162945,-21.521852536373032,62.838972856087054
6.185655355549361,6.769596644877481,-1.4438856872257944,-4.527284613602075,-15.47364105932422,57.84304411420667
6.253351321998136,6.614860234284239,-1.4891585333618151,-3.948854172460008,-10.482777700663107,54.41827619055427
6.319499924340978,6.5100324572776085,-1.5286470750864152,-3.404671410554465,-6.303906166162623,52.207878145174895
6.384600248913754,6.446993395615983,-1.56269378919196,-2.8825926291027164,-2.7562028228098088,50.92576664512932
6.449070182869914,6.419431367387885,-1.591519715482987,-2.3733349626514233,0.2844287739974019,50.344338860365575
6.513264496543792,6.422275655127859,-1.6152530651095012,-1.8698915740477675,2.8973146686843774,50.27680181448874
6.577487253095071,6.451248801814702,-1.633951980849979,-1.36712355590288,5.127593876607632,50.562449388894
6.641999741113218,6.502524740580778,-1.6476232164090077,-0.86149906201394,6.9948658295045405,51.05646416819603
6.707024988519026,6.5724733988758235,-1.656238207029147,-0.35093442033197975,8.500529253807455,51.62412419587042
6.772749722507784,6.657478691413898,-1.6597475512324669,0.1653068216267245,9.634507946797132,52.13895799696997
6.839324509421924,6.753823770881869,-1.6580944830161997,0.6866964015964242,10.381785068122364,52.48427561853602
6.906862747130742,6.857641621563093,-1.6512275190002355,1.2115391577817842,10.728788011976286,52.557295635382665
6.9754391633463735,6.964929501682856,-1.6391121274224176,1.737112114135611,10.669286349151669,52.274772262409904
7.045088458363202,7.071622365174372,-1.6217410062810615,2.25985983675971,10.209181698652932,51.57872240844289
7.115804682014946,7.173714182160902,-1.5991424079134644,2.775647060844139,9.369478006192624,50.440733486958806
7.187541823836555,7.267408962222828,-1.571385937305023,3.280054395713727,8.186884691968176,48.86354333195418
7.260215913458783,7.34927780914251,-1.5385853933478857,3.768689829033269,6.711902560520061,46.87915407470517
7.333708691550208,7.416396834747711,-1.500898495057553,4.237481369780321,5.004755209650079,44.54354662866772
7.407872659897685,7.466444386844212,-1.4585236813597497,4.682916836066998,3.129980118805909,41.9288570268138
7.482537103766127,7.497744188032271,-1.4116945129990797,5.102205406335137,1.1507261812387886,39.114405201004665
7.55751454564645,7.509251449844658,-1.3606724589357282,5.493349458345183,-0.8762473612894406,36.17808394878937
7.632607060144896,7.500488976231764,-1.3057389643522763,5.855130297833077,-2.9041629273895335,33.18934004343433
7.707611949907214,7.471447346957868,-1.2471876613739457,6.187023698267421,-4.898096647234512,30.204464912162923
7.782326423376793,7.422466380485523,-1.1853174243912714,6.48906834738905,-6.835189975403331,27.26435864057241
7.856551087181648,7.35411448073149,-1.120426740917381,6.761711933794774,-8.703514412958311,24.3944950972297
7.930092231988963,7.267079336601907,-1.0528096215794331,7.005656884767071,-10.500015354068115,21.606568155353997
8.002763025354982,7.162079183061226,-0.9827530527317624,7.2217225663206115,-12.227957749652326,18.90122960351867
8.074383817185595,7.039799605564703,-0.9105358270685563,7.410734862355798,-13.894225642826866,16.271382778479023
8.144781813241242,6.900857349136434,-0.8364284784449983,7.573448690140588,-15.506736116784223,13.705607071320808
8.213790386732606,6.745789987968592,-0.7606939915435924,7.710504760853796,-17.072146976639328,11.19140604554458
8.281248286612293,6.575068518202198,-0.6835889439350544,7.822418821309242,-18.59397996644791,8.718067117950781
8.346998971794315,6.3891287185377195,-0.605364755721962,7.909599492488749,-20.071246810869205,6.278985267214844
8.410890258979693,6.188416250429027,-0.5262687607970745,7.972389345160898,-21.49764473171688,3.8733429496638387
8.472774421483983,5.973439803111858,-0.44654486734546556,8.011122774657537,-22.861369078573823,1.507066493098495
8.532508819515101,5.74482611232612,-0.3664336395988902,8.026193439588521,-24.145562333805234,-0.8069898702720212
8.589957080638362,5.503370488988067,-0.28617170520300494,8.018123540885801,-25.32937462969615,-3.0496366304462477
8.644990785528243,5.250076742691106,-0.20599046979414692,7.9876271745813385,-26.389551567459026,-5.196660613800629
8.697491552955155,4.986181227016516,-0.12611419804833354,7.935660568443332,-27.302398657464483,-7.2207235378895716
8.74735336522532,4.713157240441872,-0.046757592363900216,7.863453333064436,-28.045912292192128,-9.093641800625432
8.79448493762974,4.4326981175199505,0.03187694096674415,7.772516915058182,-28.601831233184765,-10.788786557853353
8.83881191880494,4.146679805188103,0.10960211011732597,7.6646290494796485,-28.957363393939012,-12.283322926833343
8.88027871685682,3.8571061712487125,0.18624840061212244,7.541795820211315,-29.10638519801716,-13.560031389317954
8.918849778569307,3.566042319268541,0.2616663588142356,7.406195506318136,-29.049988956975923,-14.608521341939765
8.954510201761993,3.2755424296987816,0.335728313877417,7.260110292898738,-28.796351643387386,-15.425742993842201
8.987265626058981,2.9875789132649078,0.40832941680640433,7.105852862960316,-28.35999509312567,-16.015808680456963
9.017141415191631,2.703978962333651,0.4793879454360075,6.945694776155746,-27.760583375830347,-16.38922638437623
9.044181204814967,2.4263731285753476,0.5488448931975649,6.781802512311984,-27.02144511475585,-16.561710445477004
9.06844493610072,2.156158677427789,0.6166629183206848,6.6161854078572135,-26.168013877593282,-16.55275995932375
9.090006522874997,1.8944785386518561,0.6828247723992569,6.450657808263976,-25.226354226534045,-16.38418661097045
9.108951308261515,1.6422149963865156,0.7473313504818966,6.286815942154272,-24.221895950939235,-16.0787399681271
9.125373458225381,1.3999960368771232,0.8101995099034394,6.1260285424730005,-23.178447088516318,-15.658931731177425
9.139373418594152,1.1682115659919599,0.8714597953281694,5.969439225161226,-22.11750817185444,-15.146112440149123
9.151055534254072,0.9470364842734155,0.9311541875797816,5.817978100759735,-21.057872424160138,-14.559812832578007
9.160525899096806,0.7364577600318141,0.989333968587379,5.672379972433955,-20.01547197945312,-13.917331690324707
9.167890476697124,0.5363030402372828,1.0460577683117185,5.533206655530708,-19.003418008658038,-13.233533455851004
9.173253507099497,0.34626886015070246,1.1013898348670255,5.400871320972198,-18.032180374493578,-12.52081068246493
9.176716195701005,0.16594705640576668,1.1553985480767475,5.275663214147548,-17.109856905228163,-11.789165928020955
9.178375666265062,-0.00515151264651495,1.2081551802182229,5.157771554867339,-16.24249053454178,-11.046372234168327
9.178324151138597,-0.16757641799193276,1.2597328957668963,5.0473078325256555,-15.434401998513936,-10.298178459127667
9.176648386958677,-0.32192043797707215,1.3102059740921528,4.9443260479343785,-14.688514871667389,-9.548533683770067
9.173429182578905,-0.46880558669374606,1.3596492345714966,4.848840711096678,-14.00665751322092,-8.799812571279508
9.168741126711968,-0.6088721618259553,1.4081376416824634,4.760842585383882,-13.389832556566276,-8.053030365413296
9.162652405093707,-0.742770487391618,1.455746067536302,4.680312281729749,-12.838448821512793,-7.308042011653487
9.155224700219792,-0.8711549756067459,1.5025491903535997,4.607231861613214,-12.352513047478434,-6.56372481541991
9.146513150463724,-0.9946801060815302,1.5486215089697317,4.541594613459015,-11.931779774859084,-5.818148437081223
9.136566349402909,-1.113997903830121,1.594037455104322,4.483413129088203,-11.575857142749262,-5.068740320451352
9.125426370364607,-1.2297564752576138,1.638871586395204,4.43272572588369,-11.284264330650242,-4.3124594213705905
9.113128805612032,-1.3425991185641162,1.6831988436540408,4.389601131669984,-11.056432727129911,-3.5459970105499137
9.09970281442639,-1.4531634458354152,1.7270948549707406,4.354141161564485,-10.891637397952882,-2.7660311363729155
9.085171179968036,-1.5620798198149441,1.7706362665863855,4.326480850200755,-10.788837681254964,-1.969571877829685
9.069550381769886,-1.6699681966274937,1.813901075088393,4.306785131422458,-10.746395402087032,-1.1544485354082084
9.052850699803612,-1.7774321506483641,1.8569689264026177,4.295240646068376,-10.761626238990967,-0.3200076377738677
9.035076378297129,-1.8850484130382739,1.8999213328633013,4.292040569690638,-10.830125170563846,0.5318891273826317
9.016225894166746,-1.9933496647439124,1.9428417385602077,4.297359460964464,-10.94479408518291,1.395459847581838
8.996292397519307,-2.1027976055957414,1.9858153331698523,4.311314059440282,-11.094497016985617,2.2590787399290746
8.975264421463349,-2.2137425757655977,2.028928473764255,4.333904846839573,-11.2622939761182,3.1027571340232787
8.953126995705693,-2.32636551552678,2.0722675222326505,4.364932418179806,-11.423291267936927,3.8950725843035165
8.929863340550426,-2.4405984282061493,2.1159168464144487,4.403883144022841,-11.54234791002606,4.589870777686284
8.905457356268364,-2.55602190730641,2.159955677854677,4.449781851799704,-11.572260991481471,5.123601587315921
8.8798971371953,-2.6717445172212244,2.204453496372674,4.501017867672863,-11.45365576694785,5.4149985143108506
8.853179692023089,-2.7862810748907028,2.2494636750494026,4.555167852815972,-11.118523861407327,5.369825838901671
8.825316881274182,-2.897466313504776,2.295015353577562,4.608866111204988,-10.499734107076433,4.893971180936697
8.796342218139134,-3.0024636545755405,2.341104014689612,4.657805823014355,-9.547925953533953,3.9169087113894707
8.766317581593379,-3.09794291411088,2.3876820729197554,4.69697491012825,-8.253842181537337,2.4228908051310682
8.73533815245227,-3.1804813359262534,2.434651822021038,4.721203818179561,-6.668454285240997,0.4792494505792265
8.703533339093008,-3.2471658787786635,2.4818638602028336,4.725996312685353,-4.908548738629126,-1.755400245184142
8.671061680305222,-3.2962513661649546,2.529123823329687,4.708442310233512,-3.137990298487435,-4.056769589284437
8.638099166643572,-3.327631269149829,2.576208246432022,4.6678746143406675,-1.5274784789829237,-6.190497087770929
8.604822853952074,-3.3429060539396582,2.622886992575429,4.6059696434629585,-0.2104793882287467,-7.973193502594269
8.571393793412676,-3.345010847821946,2.6689466890100584,4.526237708437016,0.743646218042192,-9.309717735152402
8.537943684934458,-3.337574385641524,2.7142090660944285,4.433140531085492,1.330347699772656,-10.194231967191417
8.504567941078042,-3.3242709086437974,2.7585404714052832,4.331198211413578,1.5913213436763476,-10.684631532483257
8.471325231991605,-3.3083576952070337,2.801852453519419,4.224351896088745,1.5904077088975022,-10.869385357591291
8.438241655039535,-3.2924536181180586,2.8440959724803068,4.115658042512832,1.3942265137868763,-10.840985933624031
8.405317118858354,-3.27851135298019,2.885252552905435,4.007248183176592,1.0609885485440398,-10.680712904643302
8.372532005328553,-3.2679014674947493,2.925325034737201,3.900441054130159,0.636256253677322,-10.452966566600516
8.339852990653606,-3.261538904957976,2.9643294452785027,3.7959113884641535,0.1529487311119299,-10.205414354575007
8.307237601604026,-3.260009417646857,3.0022885591631443,3.6938572449184033,-0.36673026444644397,-9.971745241976498
8.274637507427558,-3.263676720291321,3.0392271316123285,3.5941397924986385,-0.9088737224437844,-9.775066006714578
8.242000740224645,-3.2727654575157588,3.075168529537315,3.4963891324314926,-1.4656524116232263,-9.630999458665178
8.209273085649487,-3.287421981631991,3.11013242086163,3.4000791378448407,-2.0335335444945972,-9.550165635483669
8.176398865833168,-3.3077573170769368,3.1441332122400785,3.304577481490004,-2.611951968787745,-9.540030020488176
8.143321292662398,-3.3338768367648144,3.1771789870549787,3.2091771812851224,-3.202361832982162,-9.606218039278303
8.10998252429475,-3.365900455094636,3.20927075886783,3.113115000892339,-3.8075769780431505,-9.753417884524325
8.076323519743804,-3.4039762248750676,3.2404019088767533,3.015580822047096,-4.431316083661288,-9.985978783943303
8.042283757495053,-3.4482893857116803,3.2705577170972244,2.915721034207663,-5.077884208777252,-10.308285861659268
8.007800863637936,-3.499068227799453,3.299714927439301,2.8126381755910703,-5.751937466923037,-10.724966869745131
7.972810181359941,-3.5565876024686833,3.327841309195212,2.705388506893619,-6.458289355821356,-11.240963853517986
7.937244305335255,-3.621170496026897,3.3548951942641483,2.5929788683584394,-7.201725322168476,-11.861484638898034
7.901032600374986,-3.693187749248582,3.3808249829477326,2.474364021969459,-7.986797017453683,-12.591834218153116
7.8641007228825,-3.7730557194231187,3.405568623167427,2.348445679787928,-8.817570234498172,-13.437113919919943
7.826370165688269,-3.8612314217681005,3.4290530799653065,2.2140745405887285,-9.697301692121796,-14.401766333548123
7.787757851470588,-3.9582044386893185,3.4511938253711936,2.0700568772532475,-10.62802081411048,-15.488936629030459
7.748175807083695,-4.064484646830423,3.471894394143726,1.915167510962943,-11.609994880807172,-16.699617358272615
7.707530960615391,-4.180584595638495,3.4910460692533554,1.7481713373802168,-12.641061303253291,-18.031546298375595
7.665725114659006,-4.306995208671028,3.5085277826271577,1.5678558743964608,-13.715821674118724,-19.47783885093761
7.622655162572296,-4.444153425412215,3.5242063413711224,1.3730774858870847,-14.82471147521729,-21.025362460626603
7.578213628318174,-4.5924005401643875,3.537937116229993,1.1628238612808186,-15.95298957667249,-22.65290540357121
7.53228962291653,-4.751930435931112,3.5495653548428012,0.9362948072451065,-17.079734518445214,-24.32925993918962
7.484770318557219,-4.922727781115564,3.5589283029152523,0.6930022078532103,-18.176988644682638,-26.011430102208127
