th1 (rad),w1 (rad/s),th2 (rad),w2 (rad/s),a1 (rad/s^2),a2 (rad/s^2)
4.556697461725676,-1.856669177887971,2.1608895046221783,-2.6576572789088497,7.057639624092117,-0.6193753625821036
4.538130769946797,-1.7860927816470498,2.13431293183309,-2.6638510325346707,6.87626332980965,-1.0507167913050237
4.520269842130326,-1.7173301483489534,2.107674421507743,-2.674358200447721,6.690698759247056,-1.4664823977982675
4.503096540646837,-1.6504231607564828,2.080930839503266,-2.6890230244257034,6.501615632745538,-1.866922931923898
4.486592309039272,-1.5854070044290274,2.054040609259009,-2.7076922537449426,6.309683534192674,-2.252291703621516
4.470738238994982,-1.5223101690871006,2.0269636867215595,-2.730215170781158,6.115593947232014,-2.6228179025002096
4.455515137304111,-1.4611542296147804,1.9996615350137479,-2.75644334980616,5.920083691214071,-2.9786778793798234
4.440903595007963,-1.4019533927026397,1.9720971015156863,-2.7862301285999584,5.723960139441581,-3.3199638445509656
4.426884061080937,-1.3447137913082239,1.9442348002296868,-2.819429767045468,5.528128628241758,-3.6466494095333677
4.413436923167855,-1.2894325050258062,1.916040502559232,-2.855896261140802,5.333622469161454,-3.958551394722487
4.400542598117597,-1.2360962803341917,1.887481539947824,-2.895481775088027,5.141635947351071,-4.255287357540043
4.388181635314255,-1.184679920860681,1.8585267221969437,-2.9380346486634275,4.953560611826548,-4.536228383296475
4.376334836105648,-1.1351443147424156,1.8291463757103095,-2.983396932496392,4.771025017099685,-4.800446850015601
4.364983392958224,-1.0874340645714187,1.7993124063853456,-3.031401400996548,4.5959378332797804,-5.046659164071773
4.354109052312509,-1.0414746862386208,1.76899839237538,-3.081867992637266,4.430533868174465,-5.273163911285119
4.343694305450123,-0.9971693475568761,1.7381797124490075,-3.1345996317501172,4.277421997236087,-5.477776535071882
4.333722611974554,-0.9543951275845153,1.7068337161315064,-3.189377397100836,4.1396332256801225,-5.657762606803256
4.324178660698709,-0.9129987953277141,1.674939942160498,-3.2459550231688685,4.020666058856727,-5.809773067689798
4.315048672745432,-0.8727921347391469,1.6424803919288093,-3.3040527538457667,3.924524983812437,-5.929786567642307
4.30632075139804,-0.8335468849010225,1.6094398643903516,-3.3633506195221896,3.855746137815801,-6.013066255945915
4.29798528254903,-0.7949894235228645,1.5758063581951296,-3.423481282081649,3.8194021717811197,-6.054141093163144
4.290035388313801,-0.7567954018050533,1.541571545374313,-3.4840226930132805,3.8210759987768332,-6.046824861386324
4.282467434295751,-0.718584641817285,1.5067313184441802,-3.544490941627144,3.8667907658327034,-5.984289302703259
4.275281587877578,-0.6799167341589579,1.4712864090279087,-3.6043338346541764,3.96288139887779,-5.8592107327162894
4.268482420535989,-0.64028792017018,1.435243070681367,-3.662925941981339,4.115792082472048,-5.66401126423915
4.262079541334287,-0.5991299993454595,1.3986138112615536,-3.719566054623731,4.331784957311746,-5.3912152762875145
4.256088241340832,-0.5558121497723421,1.3614181507153162,-3.773478207386606,4.616549303877558,-5.033937467972712
4.250530119843108,-0.5096466567335665,1.3236833686414502,-3.823817582066333,4.974708787265118,-4.58650905461879
4.245433653275772,-0.45989956886091526,1.2854451928207868,-3.869682672612521,5.409238008720836,-4.045231907336308
4.240834657587163,-0.4058071887737069,1.2467483660946617,-3.910134991685884,5.9208189438748615,-3.4092260921880713
4.236776585699426,-0.3465989993349583,1.2076470161778028,-3.9442272526077646,6.507191704016092,-2.6813054979098863
4.233310595706076,-0.2815270822947974,1.168204743651725,-3.9710403075868634,7.1625791528752405,-1.8687829443060366
4.230495324883128,-0.20990129076604497,1.1284943405758565,-3.989728137029924,7.8772854796120555,-0.9840774906504333
4.228396311975468,-0.1311284359699244,1.0885970592055574,-3.999568911936428,8.63757710204355,-0.04498253625501329
4.227085027615768,-0.0447526649494889,1.0486013700861931,-4.000018737298978,9.425942217136347,0.9255356713273247
4.226637500966273,0.04950675722187457,1.0086011827132033,-3.990763380585705,10.221787601243499,1.9000957795405313
4.227132568538492,0.15172463323430957,0.9686935489073463,-3.9717624227902997,11.002568736089765,2.848225546356993
4.228649814870835,0.2617503205952072,0.9289759246794432,-3.94328016732673,11.745271404274055,3.738164411338992
4.231267318076787,0.37920303463794774,0.8895431230061759,-3.90589852321334,12.428087016688403,4.538957432175768
4.2350593484231664,0.5034839048048317,0.8504841377740425,-3.860508948891582,13.032071233346484,5.222580919471314
4.240094187471215,0.6338046171382966,0.8118790482851267,-3.808283139696869,13.542563427901857,5.765816668562647
4.246432233642597,0.7692302514173152,0.773796216888158,-3.7506249730112424,13.950179880841477,6.151627574645967
4.2541245361567706,0.9087320502257299,0.7362899671580456,-3.689108697264783,14.2512685454973,6.369874829992507
4.263211856659028,1.0512447356807029,0.6993988801853978,-3.6254099489648577,14.447808028039288,6.4173324804486525
4.273724304015835,1.1957228159610958,0.6631447806957492,-3.561236624160371,14.546823469065497,6.297068593754384
4.285681532175446,1.3411910506517508,0.6275324144541455,-3.4982659382228274,14.559456643866014,6.017347285451772
4.299093442681964,1.486785617090411,0.5925497550719172,-3.43809246536831,14.49985625915793,5.590247851949781
4.313961298852868,1.6317841796819903,0.5581688304182341,-3.382189986848812,14.384048104919035,5.030195883247274
4.330279140649687,1.7756246607311807,0.5243469305497459,-3.331888028016339,14.228913017086164,4.352567009692897
4.348035387256999,1.9179137909020425,0.4910280502695825,-3.2883623579194103,14.051356679620696,3.572472371433333
4.36721452516602,2.0584273576982497,0.4581444266903884,-3.252637634205077,13.867711204694645,2.703780704698134
4.3877987987430025,2.197104469745196,0.42561805034833766,-3.2255998271580957,13.693372380991617,1.7583855049489856
4.409769843440454,2.334038193555112,0.3933620520767567,-3.2080159721086057,13.542652184857412,0.7456921096707599
4.433110225376005,2.469464715403686,0.3612818923556706,-3.200559051011898,13.428813684269953,-0.3277206861209576
4.457804872530042,2.6037528522463855,0.3292763018455516,-3.2038362578731077,13.36425273147445,-1.4583189688689275
4.483842401052506,2.73739537956113,0.2972379392668205,-3.218419447561797,13.36079493512518,-2.645767911568363
4.511216354848117,2.8710033289123817,0.26505374479120253,-3.2448771266774803,13.430084575151612,-3.8930749731558625
4.539926388137241,3.0053041746638978,0.23260497352442772,-3.283807876409039,13.584052245005747,-5.206771060981189
4.56997942988388,3.141144697113955,0.19976689476033732,-3.335875587018851,13.835458663002555,-6.597175036707206
4.601390876855019,3.2794992837439807,0.16640813889014883,-3.4018473373859233,14.198522420217097,-8.078784936958314
4.634185869692459,3.4214845079461518,0.13238966551628958,-3.4826351867555063,14.6896487454176,-9.670838832620003
4.668400714771921,3.568380995400328,0.09756331364873452,-3.5793435750817064,15.328283572478405,-11.398087925575762
4.704084524725924,3.721663831125112,0.061769877897917456,-3.693324454337464,16.137919712349223,-13.291820284660671
4.741301163037175,3.883043028248604,0.024836633354542816,-3.826242657184071,17.14727356887416,-15.391156284803067
4.780131593319661,4.054515763937346,-0.013425793217297893,-3.9801542200321016,18.391617303406946,-17.744585656914015
4.820676750959034,4.238431936971415,-0.05322733541761891,-4.157600076601242,19.91416050495161,-20.41158541027956
4.863061070328748,4.437573542020932,-0.09480333618363133,-4.361715930704038,21.767155883842555,-23.463847134923412
4.907436805748958,4.655245100859357,-0.1384204954906717,-4.596354402053271,24.011897792751494,-26.984930003241402
4.953989256757551,4.895364078786872,-0.1843840395112044,-4.866203702085685,26.715645702709,-31.065558079178597
5.00294289754542,5.162520535813962,-0.23304607653206127,-5.176859282877471,29.940996298992722,-35.7882572151557
5.05456810290356,5.4619304988038895,-0.284814669360836,-5.534741855029028,33.71783033712949,-41.18744677373253
5.109187407891599,5.799108802175184,-0.3401620879111263,-5.946616322766354,37.976935100151636,-47.15561491092328
5.167178495913351,6.178878153176701,-0.3996282511387898,-6.418172471875587,42.40457094156787,-53.23833543595804
5.228967277445118,6.602923862592379,-0.4638099758575457,-6.950555826235167,46.153665127807145,-58.22770477341891
5.294996516071042,7.064460513870451,-0.5333155341198974,-7.532832873969356,47.37362947523579,-59.500678426161365
5.365641121209746,7.538196808622809,-0.6086438628595909,-8.12783965823097,42.81099021129903,-52.45673441977687
5.441023089295975,7.966306710735799,-0.6899222594419007,-8.652407002428738,28.664881604869795,-31.720044196515154
5.5206861564033325,8.252955526784497,-0.7764463294661881,-8.96960744439389,4.59885493841584,3.218858258843432
5.603215711671178,8.298944076168656,-0.866142403910127,-8.937418861805456,-21.58670138087347,41.427910139924634
5.686205152432864,8.083077062359921,-0.9555165925281816,-8.52313976040621,-38.67367491019451,67.14398616479791
5.767035923056463,7.696340313257976,-1.0407479901322436,-7.8516998987582305,-43.33109626233181,75.62752076711452
5.843999326189043,7.263029350634658,-1.1192649891198259,-7.095424691087086,-40.1120238238242,73.17894207858681
5.91662961969539,6.8619091123964155,-1.1902192360306967,-6.363635270301217,-34.02726033375913,66.76566869115454
5.985248710819354,6.521636509058824,-1.2538555887337088,-5.695978583389672,-27.687186671325563,60.02528667622361
6.050465075909942,6.244764642345569,-1.3108153745676057,-5.0957257166274355,-22.006472782354674,54.238606176595106
6.112912722333398,6.024699914522022,-1.36177263173388,-4.553339654861484,-17.162510083034597,49.65861631560992
6.173159721478618,5.853074813691676,-1.407306028282495,-4.056753491705385,-13.084884112978141,46.18878456169754
6.231690469615535,5.722225972561895,-1.4478735631995487,-3.59486564608841,-9.646206460632225,43.647077402729096
6.288912729341154,5.625763907955573,-1.483822219660433,-3.158394872061119,-6.725768563249964,41.85362111685366
6.34517036842071,5.558506222323073,-1.515406168381044,-2.7398586608925823,-4.2263441071918315,40.65341770390879
6.400755430643941,5.5162427812511545,-1.54280475498997,-2.3333244838534943,-2.075338774958342,39.917433980634954
6.455917858456453,5.495489393501571,-1.566137999828505,-1.9341501440471447,-0.2214732947352089,39.53768685350947
6.510872752391468,5.493274660554219,-1.5854795012689764,-1.53877327551205,1.3692735768921487,39.42164828147614
6.56580549899701,5.50696739632314,-1.6008672340240968,-1.1445567926972886,2.7174006690414068,39.487621041381296
6.6208751729602415,5.534141403013554,-1.6123128019510697,-0.7496805822834756,3.833140316788407,39.66147988478379
6.676216586990377,5.572472806181438,-1.6198096077739046,-0.35306578343563766,4.719339458452801,39.87476736524288
6.731941315052191,5.619666200765966,-1.623340265608261,0.04568189021679114,5.374101927741616,40.06400605220631
6.788137977059851,5.673407220043383,-1.622883446706093,0.4463219507388542,5.79327553808597,40.171032361949244
6.844872049260284,5.731339975424242,-1.6184202271987045,0.8480322743583466,5.972788585356083,40.1441045425139
6.902185449014527,5.791067861277803,-1.609939904455121,1.2494733197834855,5.910762254989555,39.939478101763974
6.960096127627305,5.850175483827698,-1.5974451712572861,1.6488681008011252,5.6092671876234945,39.52309104505842
7.018597882465582,5.906268155703933,-1.580956490249275,2.0440990112517095,5.075569600785352,38.87198290248688
7.077660564022621,5.957023851711787,-1.5605155001367579,2.4328188402765782,4.32273429743435,37.97510711984549
7.137230802539739,6.000251194686131,-1.5361873117339921,2.812569911475033,3.3695176562029663,36.833294275148454
7.197233314486601,6.0339463712481605,-1.5080616126192419,3.1809028542265176,2.2395797355973994,35.45827270941803
7.257572778199083,6.056342168604134,-1.4762525840769767,3.535485581320698,0.9601471758818145,33.87082407282104
7.318136199885124,6.065943640362952,-1.4408977282637696,3.874193822048908,-0.4396592600870207,32.09830490926602
7.378795636288754,6.061547047762081,-1.4021557900432806,4.195176871141568,-1.9305779438099422,30.171866367422343
7.439411106766375,6.042241268323982,-1.360204021331865,4.496895534815791,-3.4847948487773683,28.123732776133373
7.499833519449615,6.007393319836209,-1.315235065983707,4.778132862577125,-5.077174083069474,25.984857579305306
7.559907452647977,5.956621579005514,-1.2674537373579358,5.037981438370178,-6.686016361120429,23.783181464372174
7.619473668438032,5.889761415394309,-1.217073922974234,5.2758132530139,-8.293316391386389,21.54260096956542
7.678371282591975,5.806828251480446,-1.164315790444095,5.491239262709554,-9.884564036491726,19.28264378017446
7.73643956510678,5.707982611115528,-1.1094033978169995,5.684065700511298,-11.448186616072029,17.01875829245488
7.793519391217935,5.593500744954808,-1.0525627408118865,5.854253283435847,-12.974758339834638,14.763068015928647
7.849454398667484,5.463753161556461,-0.994020207977528,6.001883963595134,-14.456110551589802,12.525415133834937
7.904091930283048,5.319192056040563,-0.9340013683415767,6.127138114933483,-15.884468671998818,10.314515966134959
7.957283850843454,5.160347369320576,-0.8727299871922418,6.230283274594832,-17.251723781508744,8.139066735028228
8.00888732453666,4.987830131505488,-0.8104271544462935,6.311673941945115,-18.548922516239376,6.00866469564139
8.058765625851715,4.802340906343094,-0.7473104150268424,6.3717605889015285,-19.766030509394593,3.934443315066898
8.106789034915145,4.604680601249148,-0.683592809137827,6.4111050220521975,-20.89199314870484,1.929358504019658
8.152835840927636,4.3957606697621,-0.6194817589173051,6.430398607092394,-21.91508410393752,0.008104349608013678
8.196793447625257,4.176609828722725,-0.5551777728463811,6.430479650588475,-22.82349895804522,-1.8133207220560135
8.238559545912485,3.948374839142273,-0.4908729763404964,6.412346443367914,-23.606121624965468,-3.5183362350569327
8.278043294303908,3.7123136228926183,-0.4267495119068173,6.377163081017345,-24.253369196541165,-5.090695906525993
8.315166430532834,3.469779930927207,-0.36297788109664386,6.326256121952086,-24.758010456933288,-6.515481638632573
8.349864229842106,3.222199826357874,-0.299715319877123,6.26110130556576,-25.115857169442407,-7.780052866402913
8.382086228105685,2.97104125466345,-0.2371043068214654,6.183300776901731,-25.326245525718754,-8.874839657679951
8.41179664065232,2.7177787994062625,-0.1752712990524481,6.094552380324932,-25.392255067697747,-9.79389400597066
8.438974428646382,2.463856248729285,-0.11432577524919878,5.996613440265225,-25.320648682928898,-10.535150282229043
8.463612991133676,2.210649761899996,-0.05435964084654653,5.891261937442935,-25.12155342851109,-11.100386075312144
8.485719488752675,1.959434227614885,0.00455297852788282,5.7802580766898135,-24.80793182836919,-11.494911607622672
8.505313831028824,1.711354909331193,0.062355559294780954,5.6653089606135865,-24.394912598357525,-11.727043885598086
8.522427380122135,1.4674057833476177,0.11900864890091682,5.548038521757606,-23.899056789757648,-11.807437563671504
8.537101437955611,1.2284152154500412,0.17448903411849287,5.429964146120891,-23.337631029183513,-11.748347818160104
8.549385590110111,0.995038905158206,0.22878867557970178,5.31248066793929,-22.727946736145835,-11.56289335994
8.559335979161693,0.7677594377967477,0.2819134822590947,5.196851734339891,-22.086806697817366,-11.264373493381763
8.567013573539661,0.5468913708185741,0.3338819996024936,5.084207999406074,-21.430081866454522,-10.865675648729006
8.572482487247846,0.3325905521540289,0.3847240795965543,4.975551242918783,-20.772424610240588,-10.378792386432538
8.575808392769387,0.124866306051623,0.43447959202574216,4.871763319054458,-20.12711165818682,-9.814451836286796
8.577057055829904,-0.0764048105302452,0.4831972252162867,4.77361880069159,-19.506001291945243,-9.181854145144618
8.576293007724601,-0.27146482344969763,0.5309334132232026,4.681800259240144,-18.91958474270796,-8.488499080449387
8.573578359490105,-0.46066067087677726,0.5777514158156041,4.59691526843565,-18.37711049740012,-7.740086139559526
8.568971752781337,-0.6444317758507785,0.6237205684999606,4.519514407040054,-17.88676131018625,-6.940467678947109
8.56252743502283,-0.823299388952641,0.6689157125703611,4.450109730250583,-17.45586613264858,-6.0916369716933705
8.554294441133303,-0.9978580502791268,0.7134168098728669,4.38919336053365,-17.091131987818702,-5.19373613585094
8.544315860630512,-1.1687693701573139,0.7573087434782034,4.337255999175141,-16.798883195110143,-4.245073247522304
8.532628166928939,-1.3367582021084152,0.8006813034699548,4.2948052666999175,-16.58529652050173,-3.242143769556521
8.519260584907855,-1.5026111673134326,0.843629356136954,4.262383829004352,-16.4566198896732,-2.179659358092719
8.504234473234721,-1.6671773662101645,0.8862531944269976,4.240587235423425,-16.419358033837405,-1.0505986193886345
8.487562699572619,-1.8313709465485386,0.9286590667812318,4.2300812492295385,-16.48039891605306,0.15368785422925657
8.469248990107134,-1.9961749357090692,0.9709598792735271,4.231618127771831,-16.647036844395725,1.4432572796885368
8.449287240750044,-2.1626453041530267,1.0132760605512454,4.246050700568717,-16.92681657855202,2.829131496348869
8.427660787708513,-2.331913469938547,1.0557365675569326,4.274342015532206,-17.32706896563468,4.322445482494316
8.404341653009128,-2.5051841595948936,1.0984799877122546,4.317566470357149,-17.853919404343795,5.93287519489175
8.379289811413178,-2.6837233536383316,1.1416556524158261,4.376895222306066,-18.510406487065218,7.665828288066456
8.352452577876795,-2.868827418508984,1.1854246046388868,4.453553505186731,-19.2931259520867,9.51756657634377
8.323764303691705,-3.061758678029851,1.229960139690754,4.5487291709501685,-20.186498644096613,11.46698059125802
8.293146716911407,-3.2636236644708174,1.2754474314002557,4.663398976862749,-21.153383926196533,13.46220010174863
8.2605104802667,-3.475157503732783,1.3220814211688832,4.798020977880235,-22.12052062925386,15.399878031686713
8.225758905229371,-3.6963627100253214,1.3700616309476854,4.9520197581971015,-22.957809583730953,17.09571868042075
8.188795278129119,-3.925940805862631,1.4195818285296564,5.122976945001309,-23.45330705790466,18.248819741593383
8.149535870070492,-4.160473876441678,1.4708115979796694,5.305465142417242,-23.293853282778663,18.413720296280285
8.107931131306076,-4.393412409269464,1.523866249403842,5.489602345380045,-22.077328608584676,17.01669038463655
8.06399700721338,-4.614185695355311,1.5787622728576425,5.659769249226411,-19.401624334590686,13.479821150851528
8.017855150259827,-4.808201938701218,1.6353599653499067,5.7945674607349265,-15.06781090998948,7.506141290749897
7.969773130872815,-4.958880047801112,1.693305639957256,5.869628873642426,-9.34536562871917,-0.5465885319920509
7.920184330394804,-5.052333704088304,1.75200192869368,5.864162988322505,-3.0847611842266565,-9.504267671702955
7.8696609933539206,-5.08318131593057,1.8106435585769052,5.769120311605476,2.5560888013291376,-17.755426300043105
7.818829180194615,-5.0576204279172785,1.86833476169296,5.591566048605045,6.663833933792634,-24.02178790774319
7.768252975915442,-4.9909820885793525,1.9242504221790104,5.351348169527613,8.940237484939251,-27.877683032606324
7.718343155029649,-4.90157971372996,1.9777639038742865,5.0725713392015495,9.630027792003796,-29.65244246131565
7.669327357892349,-4.805279435809922,2.028489617266302,4.776046914588393,9.208756200476783,-29.997808729833686
7.621274563534249,-4.713191873805155,2.076250086412186,4.476068827290056,8.129482946721888,-29.536552083638426
7.574142644796198,-4.6318970443379355,2.1210107746850864,4.180703306453672,6.72192966892814,-28.722544303996617
7.527823674352819,-4.564677747648654,2.162817807749623,3.8934778634137053,5.191536063832396,-27.83920383885631
7.482176896876332,-4.51276238701033,2.20175258638376,3.615085825025142,3.6526745155432403,-27.045091322504167
