th1 (rad),w1 (rad/s),th2 (rad),w2 (rad/s),a1 (rad/s^2),a2 (rad/s^2)
3.2349551472860583,0.1075818101498033,4.683681367466391,2.0065947506325252,2.3334395006893205,9.500338011384622
3.236030965387556,0.1309162051566965,4.703747314972716,2.1015981307463716,2.631384145949601,9.511823075213309
3.237340127439123,0.1572300466161925,4.72476329628018,2.196716361498505,2.944504449733475,9.529405959242105
3.238912427905285,0.18667509111352726,4.746730459895165,2.292010421090926,3.2730464789250666,9.553448659027476
3.24077917881642,0.21940555590277794,4.769650564106074,2.387544907681201,3.617265423881657,9.584232117988932
3.242973234375448,0.2555782101415945,4.793526013182886,2.4833872288610905,3.9774184333017164,9.621941524626143
3.245529016476864,0.29535239447461165,4.818359885471497,2.579606644107352,4.353755369519857,9.666650331480882
3.24848254042161,0.3388899481698102,4.844155951912571,2.676273147422161,4.746507234576429,9.71830282576664
3.2518714399033084,0.3863550205155745,4.870918683386792,2.773456175679827,5.1558720167475585,9.776695078052542
3.255734990108464,0.4379137406830501,4.89865324514359,2.8712231264603525,5.581997713241489,9.84145410421201
3.2601141275152945,0.493733717815465,4.927365476408194,2.9696376675024725,6.024962300473309,9.912015100783
3.265051464693449,0.5539833408201981,4.957061853083219,3.0687578185103024,6.4847504525779796,9.987596659145275
3.2705912981016514,0.6188308453459779,4.9877494312683215,3.168633785101755,6.96122685634986,10.06717393413712
3.2767796065551114,0.6884431139094764,5.019435769119339,3.2693055244431264,7.454106042185135,10.149449842858532
3.2836640376942063,0.7629841743313278,5.052128824363771,3.3708000228717117,7.962918752124987,10.23282450447089
3.2912938794375197,0.8426133618525777,5.085836824592488,3.4731282679164206,8.486975004416232,10.315363306512442
3.2997200130560453,0.92748311189674,5.1205681072716525,3.576281900981545,9.025324195667793,10.394764201357539
3.3089948441750128,1.0177363538534179,5.156330926281468,3.6802295429951206,9.57671281233107,10.468325099844936
3.319172207713547,1.1135034819767287,5.1931332217114194,3.78491279399357,10.139540606502367,10.53291253657843
3.3303072425333142,1.2148988880417524,5.230982349651355,3.890241919359354,10.711816427071525,10.584933127091972
3.3424562314137316,1.3220170523124677,5.269884768844949,3.9960912506302737,11.291115280796456,10.620309708584468
3.355676401936856,1.4349282051204322,5.309845681351252,4.102294347716119,11.874538616203827,10.634464432346387
3.3700256839880605,1.5536735912824704,5.350868624828413,4.208638992039583,12.458680253680935,10.62231142595008
3.3855624199008854,1.6782603938192797,5.392955014748809,4.314862106299083,13.03960079312736,10.578261923528066
3.402345023839078,1.8086564017505533,5.4361036358118,4.4206447255343635,13.612813668052938,10.496244917645937
3.4204315878565836,1.9447845384310827,5.480310083067144,4.525607174710823,14.173286220590132,10.369746350491127
3.4398794332408946,2.0865174006369838,5.525566154814252,4.629304638215734,14.715459172950498,10.191869563338615
3.4607446072472645,2.2336719923664887,5.571859201196409,4.73122333384912,15.23328758924587,9.955419091477216
3.4830813271709293,2.386004868258947,5.6191714345349,4.830777524763892,15.72030578324038,9.6530088711861
3.506941375853519,2.543207926091351,5.667479209782539,4.927307613475754,16.169717576567987,9.277194490755177
3.532373455114432,2.704905101857031,5.716752285917297,5.020079558383306,16.574511828418704,8.820627293610444
3.5594225061330023,2.870650220141218,5.766953081501129,5.10828583131941,16.927601277943165,8.276226022236544
3.5881290083344144,3.03992623292065,5.818035939814323,5.191048091541775,17.22198057561135,7.637359455054706
3.618528270663621,3.2121460386767633,5.869946420729741,5.267421686092322,17.45089712723587,6.8980314024328155
3.6506497310503883,3.386655009949122,5.922620637590665,5.33640200011665,17.608026318489795,6.053057838452819
3.6845162811498793,3.5627352731340203,5.975984657591831,5.396932578501178,17.687641180479456,5.098225243122112
3.7201436338812193,3.739611684938815,6.029953983376843,5.447914830932399,17.684765977685522,4.030419795543656
3.7575397507306074,3.9164593447156704,6.084433131686167,5.488219028887836,17.595303893858176,2.847719184928065
3.796704344177764,4.092412383654252,6.139315321975045,5.516696220737117,17.416131195072943,1.5494426123742675
3.8376284680143065,4.266573695604981,6.194482284182416,5.53219064686086,17.14515401087767,0.13615990757689164
3.8802942049703564,4.4380252357137575,6.249804190651025,5.533552245936629,16.781328993773037,-1.3903328614259713
3.924674457327494,4.605838525651488,6.305139713110391,5.519648917322369,16.32465511452766,-3.0270571122394228
3.970732842584009,4.769085076796765,6.360336202283614,5.489378346199975,15.776149981964714,-4.769894534502658
4.018423693351977,4.926846576616412,6.415229985745614,5.441679400854948,15.137829394694926,-6.613604485354369
4.067692159118141,5.0782248705633615,6.4696467797541635,5.375543356001405,14.412712293078144,-8.551790537017258
4.118474407823775,5.222351993494143,6.523402213314178,5.290025450631232,13.604873865150733,-10.576794036216688
4.170697927758716,5.35840073214565,6.57630246782049,5.184257510269065,12.71956641947754,-12.679501017596051
4.224281935080172,5.4855963963404255,6.6281450429231805,5.057462500093104,11.76342022653067,-14.849062824308898
4.279137899043576,5.603230598605732,6.678719667924112,4.908971871850015,10.744724756115254,-17.072550003244277
4.335170205029633,5.710677846166885,6.727809386642612,4.738246371817572,9.673775123674442,-19.33458221269655
4.392276983491302,5.807415597403629,6.7751918503607875,4.544900549690606,8.563250420830242,-21.617001590746536
4.4503511394653374,5.893048101611931,6.820640855857693,4.3287305337831405,7.428572230767037,-23.898679509837514
4.509281620481457,5.967333823919601,6.863928161195525,4.089743738684765,6.2881763488587055,-26.155561777858033
4.568954958720653,6.030215587408188,6.904825598582373,3.828188120906185,5.163622761794956,-28.3610591477024
4.6292571145947345,6.081851815026138,6.9431074797914345,3.544577529429161,4.079472819405881,-30.486872702463735
4.690075632744996,6.122646543220196,6.9785532550857265,3.2397088024045235,3.0628820213404793,-32.50430359655542
4.751302098177198,6.153275363433601,7.010950343109772,2.9146657664389695,2.1428933846441867,-34.386034437497685
4.812834851811534,6.174704297280043,7.0400970007741615,2.5708054220639927,1.3494675163136671,-36.108292401194554
4.874581894784335,6.18819897244318,7.065805054994802,2.209722498052047,0.7123440394956443,-37.65322618803381
4.9364638845087665,6.195322412838136,7.087902279975323,1.8331902361717087,0.25988342488373245,-39.01126960651852
4.998417108637148,6.197921247086973,7.106234182337039,1.4430775401065237,0.018075350361702155,-40.18324391597268
5.060396321108017,6.19810200059059,7.1206649577381045,1.041245100946797,0.009908639512645291,-41.18198301426598
5.122377341113923,6.1982010869857165,7.131077408747572,0.629425270804137,0.2552745480696586,-42.03335195012446
5.1843593519837805,6.200753832466413,7.137371661455614,0.20909175130289237,0.7715249766059507,-42.776657214562654
5.246366890308445,6.208469082232472,7.139462578968643,-0.21867482084273415,1.5747440334853815,-43.46459200856629
5.30845158113077,6.2242165225673265,7.137275830760215,-0.6533207409283971,2.6817334883347863,-44.16299170364218
5.3706937463564435,6.2510338574506745,7.1307426233509315,-1.094950657964819,4.112675741675783,-44.95076807121406
5.43320408493095,6.2921606148674325,7.119793116771283,-1.5444583386769595,5.894427467080788,-45.92042699069043
5.496125691079625,6.351104889538241,7.104348533384513,-2.0036626085838636,8.064399668542945,-47.179535456363176
5.559636739975007,6.43174888622367,7.084311907298675,-2.4754579631474956,10.674948856943718,-48.85334780692511
5.623954228837244,6.538498374793107,7.0595573276672,-2.9639914412167467,13.798024557224492,-51.08840177074571
5.689339212585175,6.676478620365352,7.029917413255032,-3.474875458924204,17.52921588476587,-54.055900642122374
5.756103998788828,6.851770779213011,6.99516865866579,-4.015434465345428,21.98864406747028,-57.95119259863824
5.824621706580958,7.0716572198877135,6.9550143140123355,-4.59494639133181,27.311701256433828,-62.97933032039821
5.8953382787798345,7.3447742324520515,6.909064850099018,-5.224739694535792,33.61139243577965,-69.30087429029756
5.968786021104355,7.680888156809848,6.85681745315366,-5.917748437438767,40.86669140257874,-76.87374920649096
6.045594902672454,8.089555070835635,6.797639968779272,-6.686485929503677,48.63028812912302,-85.0414494553527
6.12649045338081,8.575857952126865,6.730775109484235,-7.536900424057204,55.34417755515552,-91.57110656226503
6.212249032902078,9.12929972767842,6.655406105243664,-8.452611489679853,57.042163517700196,-90.83357404433455
6.303542030178862,9.699721362855422,6.5708799903468655,-9.360947230123198,46.17943399111233,-72.17354940723304
6.400539243807416,10.161515702766545,6.477270518045634,-10.082682724195529,15.185282463747603,-24.945940360182888
6.502154400835082,10.313368527404021,6.376443690803678,-10.332142127797358,-29.503928550937278,41.69460047913145
6.605288086109121,10.018329241894648,6.273122269525705,-9.915196123006043,-62.63560435563051,92.03922406425357
6.705471378528068,9.391973198338343,6.173970308295644,-8.994803882363506,-70.41189626527647,106.47342665224372
6.7993911105114515,8.68785423568558,6.084022269472009,-7.930069615841068,-62.756539819419324,98.81702158394913
6.886269652868307,8.060288837491386,6.004721573313598,-6.941899400001577,-51.332944018715004,85.47695226459895
6.966872541243221,7.546959397304236,5.935302579313583,-6.087129877355587,-40.88315401710777,73.20807323011506
7.042342135216264,7.138127857133158,5.874431280540027,-5.355049145054437,-32.376710026756,63.46250110563712
7.1137234137875955,6.814360756865598,5.8208807890894825,-4.7204241339980655,-25.63991357483642,56.05948107002341
7.181867021356251,6.557961621117234,5.773676547749502,-4.159829323297831,-20.294656843108786,50.504988945621996
7.247446637567424,6.355015052686146,5.732078254516524,-3.6547794338416115,-16.004079089277838,46.34239367057261
7.310996788094285,6.194974261793368,5.695530460178108,-3.1913554971358855,-12.512902374797592,43.21388332368264
7.372946530712219,6.069845238045391,5.663616905206749,-2.759216663899059,-9.637536685506394,40.84989855612636
7.433644983092673,5.973469871190328,5.636024738567758,-2.3507176783377957,-7.248578965727474,39.04692079667954
7.493379681804576,5.9009840815330525,5.61251756178438,-1.9602484703710004,-5.255735956041217,37.64824579294222
7.552389522619907,5.848426721972641,5.59291507708067,-1.5837660124415782,-3.5964806445337434,36.53000422313411
7.6108737898396335,5.812461915527304,5.5770774169562545,-1.2184659702102372,-2.227752968750256,35.591749889979155
7.668998408994907,5.790184385839801,5.564892757254152,-0.8625484713104457,-1.1198063377093135,34.75051265134324
7.726900252853304,5.778986322462708,5.556267272541048,-0.5150433447970132,-0.25150361884157846,33.93736072424351
7.784690116077932,5.776471286274292,5.551116839093077,-0.1756697375545781,0.3933875468103369,33.09571634515468
7.842454828940674,5.7804051617423955,5.549360141717531,0.1552874258969687,0.829146053274435,32.18080996629164
7.900258880558098,5.78869662227514,5.5509130159765006,0.4770955255598851,1.070393865481131,31.159745517404776
7.95814584678085,5.799400560929951,5.555683971232099,0.7886929807339329,1.1337464074732124,30.011714826882475
8.016139852390149,5.8107380250046825,5.563570901039439,1.0888101290027576,1.0387908214093504,28.72797490979237
8.074247232640195,5.821125933218776,5.5744590023294665,1.3760898781006814,0.8083810877305655,27.311307219687773
8.132458491972383,5.829209744096082,5.588219901110473,1.6492029502975591,0.46829087665879293,25.774814970033326
8.190750589413343,5.83389265286267,5.6047119306134485,1.9069510999978925,0.046333914425001094,24.140067117518473
8.24908951594197,5.834355992006921,5.623781441613428,2.1483517711730773,-0.4288757106495659,22.434737640383453
8.307433075862038,5.830067234900425,5.645264959325159,2.372699147576912,-0.9293146951246076,20.68998745581232
8.365733748211042,5.820774087949179,5.668991950800928,2.579599022135035,-1.4288856339199212,18.937874980719
8.423941489090534,5.8064852316099795,5.694787941022279,2.7689777719422253,-1.9045257030315856,17.20905800837605
8.482006341406635,5.787439974579664,5.7224777187417,2.9410683520259857,-2.336979895737854,15.530978614551039
8.539880741152432,5.764070175622286,5.75188840226196,3.096378138171496,-2.7111987795217023,13.926628348782064
8.597521442908654,5.736958187827069,5.782852183643675,3.2356444216593165,-3.0163817418179426,12.41389797567898
8.654891024786926,5.70679437040889,5.815208627860268,3.3597834014161063,-3.245729585476131,11.005443040825822
8.711958968491015,5.674337074554129,5.848806461874429,3.4698378318243646,-3.3959918479715085,9.708952347055174
8.768702339236556,5.640377156074414,5.883504840192673,3.5669273552949163,-3.466896759241323,8.527690789795974
8.8251061107973,5.605708188482001,5.919174113745623,3.652204263192876,-3.4605409306826465,7.461194714215062
8.88116319268212,5.571102779175174,5.9556961563775515,3.7268162103350266,-3.3807980086192035,6.506018495553049
8.936874220473872,5.537294799088982,5.992964318480902,3.791876395290557,-3.2327859610903658,5.656457379348518
8.992247168464761,5.504966939478078,6.0308830824338076,3.848440969084042,-3.0224149789255397,4.905197752494407
9.047296837859541,5.474742789688823,6.069367492124648,3.897492946608986,-2.7560239850818307,4.2438683659251515
9.10204426575643,5.447182549838004,6.108342421590738,3.9399316302682377,-2.4401039262232658,3.663483087807009
9.15651609125481,5.4227815105757715,6.14774173789342,3.976566461146308,-2.081099987403661,3.1547774680378113
9.210743906360568,5.401970510701735,6.187507402504883,4.008114235826686,-1.685281845037824,2.7084484862230735
9.264763611467584,5.385117692251356,6.22758854486315,4.035198720688917,-1.2586701881161295,2.3153104021895374
9.318614788390098,5.372530990370195,6.267940532070039,4.058351824710813,-0.8070082153173906,1.9663807047688955
9.372340098293801,5.364460908217021,6.308524050317147,4.078015631758501,-0.3357680425741458,1.6529096821406228
9.42598470737597,5.361103227791279,6.3493042066347325,4.0945447285799075,0.149816508513214,1.3663658273212034
9.479595739653883,5.362601392876411,6.390249653920532,4.10820838685312,0.6446977165193634,1.098387653534088
9.533221753582646,5.369048370041605,6.431331737789063,4.11919226338846,1.143947938066788,0.8407108649991385
9.586912237283062,5.3804878494222725,6.472523660422947,4.127599372038452,1.6426841921309805,0.5850784215293251
9.640717115777285,5.396914691343582,6.513799654143332,4.133450156253745,2.1359869434190486,0.3231399763312261
9.694686262690722,5.418274560777773,6.555134155705869,4.136681556017058,2.6188161584783383,0.04634652804440195
9.748869008298499,5.444462722362556,6.59650097126604,4.137145021297502,3.085927522479573,-0.2541540470330803
9.803313635522125,5.4753219975873515,6.637872421479015,4.134603480827171,3.531791861920194,-0.5876146003107482
9.858066855497999,5.510639916206554,6.679218456287287,4.128727334824064,3.9505213327243167,-0.9637726431133046
9.913173254660064,5.550145129533797,6.720505729635527,4.119089608392931,4.335806822820923,-1.3929124409149185
9.968674705955403,5.593503197762006,6.761696625719456,4.1051604839837825,4.680872301712902,-1.88589522818752
10.024609737933023,5.640311920779135,6.802748230559295,4.086301531701907,4.978453534787166,-2.45414514114261
10.081012857140815,5.690096456127007,6.843611245876313,4.061760080290481,5.220810646351502,-3.1095757228810417
10.137913821702085,5.742304562590522,6.884228846679218,4.030664323061671,5.399786384409875,-3.8644389452753347
10.19533686732799,5.79630242643462,6.924535489909834,3.992019933608918,5.506924435035949,-4.731076000937187
10.253299891592336,5.851371670784979,6.9644556892459235,3.9447091735995463,5.533664423873102,-5.721547283060797
10.311813608300186,5.90670831502371,7.003902780981919,3.8874937007689385,5.47163177512271,-6.847118960243989
10.370880691450424,5.961424632774937,7.042777717989608,3.819022511166499,5.313040534383899,-8.11758673951283
10.430494937778173,6.014555038118776,7.080967943101273,3.7378466437713707,5.051224427440503,-9.540425581067934
10.490640488159361,6.065067282393181,7.118346409538987,3.642442387960691,4.681304336626274,-11.11976937273746
10.551291160983293,6.111880325759444,7.154770833418594,3.5312446942333167,4.200987385557021,-12.85524894647808
10.612409964240888,6.153890199615014,7.190083280360927,3.402692204768536,3.611472502876143,-14.740751671524073
10.673948866237037,6.190004924643775,7.224110202408612,3.2552846880532953,2.9184091448273493,-16.76321074010683
10.735848915483475,6.219189016092049,7.256663049289145,3.087652580652227,2.132821127280748,-18.90158346905813
10.798040805644396,6.240517227364856,7.287539575095667,2.8986367459616456,1.2718706120703507,-21.12622700443674
10.860445977918044,6.25323593348556,7.316525942555283,2.687374475917278,0.35930651273629555,-23.398912647849144
10.9229783372529,6.256828998612923,7.343399687314456,2.4533853494387867,-0.5745708921348496,-25.6737178513378
10.98554662723903,6.251083289691574,7.367933540808844,2.1966481709254086,-1.49357742904505,-27.898978262661178
11.048057460135945,6.236147515401123,7.3899000225180975,1.917658388298797,-2.3570290122318034,-30.02035838696649
11.110418935289957,6.212577225278806,7.409076606401086,1.6174548044291321,-3.121816310492022,-31.98491251407292
11.172544707542745,6.181359062173885,7.425251154445377,1.297605679288403,-3.745000637105282,-33.74578655330938
11.234358298164484,6.143909055802832,7.438227211238261,0.9601478137553092,-4.186615427647313,-35.26701090306309
11.295797388722512,6.102042901526359,7.4478286893758145,0.6074777047246783,-4.412252017834471,-36.52772247273129
11.356817817737776,6.057920381348015,7.4539034664230615,0.24220047999736538,-4.394984225355559,-37.52518742239787
11.417397021551256,6.013970539094459,7.456325471223035,-0.13305139422661333,-4.116263747660958,-38.276193126896175
11.477536726942201,5.97280790161785,7.454994957280769,-0.515813325495575,-3.56558392173482,-38.81670127658622
11.53726480595838,5.937152062400502,7.449836824025813,-0.9039803382614373,-2.738916106606157,-39.20001967883302
11.596636326582384,5.909762901334441,7.440797020643199,-1.2959805350497675,-1.636107642344263,-39.49405848276597
11.655733955595728,5.893401824910998,7.427837215292701,-1.6909211198774272,-0.25753842993594633,-39.77841226863555
11.714667973844838,5.890826440611638,7.410928004093927,-2.088705242563783,1.3996611334413338,-40.142030235946606
11.773576238250955,5.904823051946051,7.390040951668289,-2.490125544923249,3.3456159602488222,-40.68213389188907
11.832624468770415,5.938279211548539,7.365139696219057,-2.8969468838421397,5.601866745511058,-41.5048766289683
11.8920072608859,5.99429787900365,7.336170227380635,-3.3119956501318226,8.20576989328776,-42.72806699334483
11.951950239675938,6.0763555779365275,7.303050270879317,-3.739276320065271,11.215320597464691,-44.48610288501697
12.012713795455303,6.188508783911175,7.2656575076786645,-4.18413734891544,14.71452191667286,-46.936985124257205
12.074598883294415,6.335654003077903,7.22381613418951,-4.653507200158012,18.818959623120392,-50.27055743656964
12.137955423325195,6.5238435993091075,7.17728106218793,-5.156212774523708,23.679740774995853,-54.715041312564196
12.203193859318286,6.760641007059066,7.125718934442693,-5.70336318764935,29.47971210880546,-60.5330885987859
12.270800269388877,7.05543812814712,7.068685302566199,-6.308694073637209,36.40439914236825,-67.98265052427297
12.341354650670349,7.4194821195708025,7.005598361829827,-6.988520578879939,44.53997518848806,-77.17594482420066
12.415549471866056,7.864881871455683,6.935713156041028,-7.760280027121945,53.575955396494024,-87.66545540986844
