th1 (rad),w1 (rad/s),th2 (rad),w2 (rad/s),a1 (rad/s^2),a2 (rad/s^2)
2.5498042476293095,-0.5420991857236742,5.5242294355166965,2.5133771553455935,-3.19251957427981,3.547096415867969
2.5443832557720727,-0.5740243814664723,5.549363207070153,2.548848119504273,-3.612461698631311,2.939507409654559
2.538643011957408,-0.6101489984527854,5.574851688265196,2.5782431936008186,-4.069143614027849,2.2898486729080325
2.53254152197288,-0.6508404345930638,5.600634120201204,2.601141680329899,-4.557646767705764,1.6051445274173262
2.5260331176269495,-0.6964169022701214,5.626645537004503,2.617193125604072,-5.071361740621392,0.8947467227281117
2.5190689486042483,-0.7471305196763354,5.652817468260544,2.626140592831353,-5.602094050181331,0.17023074846891154
2.511597643407485,-0.8031514601781486,5.679078874188858,2.627842900316042,-6.140308714976618,-0.5548900279692369
2.5035661288057036,-0.8645545473279148,5.705357303192018,2.6222940000363497,-6.675513108137206,-1.265635354107914
2.4949205833324246,-0.9313096784092869,5.731580243192382,2.6096376464952704,-7.196758974777212,-1.9461930705524204
2.4856074865483317,-1.003277268157059,5.757676619657334,2.590175715789746,-7.693225639222069,-2.5806719807073906
2.475574713866761,-1.0802095245492798,5.783578376815232,2.5643689959826723,-8.154831266290286,-3.1539057176295504
2.4647726186212684,-1.1617578372121826,5.8092220667750585,2.5328299388063766,-8.57281121282299,-3.652228882678285
2.4531550402491464,-1.2474859493404125,5.834550366163122,2.496307649979594,-8.940204306659531,-4.064147080741072
2.4406801807557423,-1.3368879924070078,5.8595134426629185,2.455666179172183,-9.25219945486132,-4.380835516447974
2.4273113008316725,-1.429409986955621,5.88407010445464,2.4118578240077033,-9.506314117307822,-4.596424056389502
2.4130172009621162,-1.5244731281286992,5.908188682694717,2.365893583443808,-9.702398947808184,-4.708055284824658
2.397772469680829,-1.621497117606781,5.931847618529154,2.3188130305955617,-9.842484750401917,-4.715730325511357
2.3815574985047614,-1.7199219651108002,5.95503574883511,2.2716557273404483,-9.930504906639854,-4.6219799577102405
2.3643582788536532,-1.8192270141771987,5.977752306108514,2.2254359277633458,-9.971936243412642,-4.431412571501219
2.346166008711881,-1.918946376611325,6.000006665386148,2.1811218020483336,-9.973403467442385,-4.15019489411191
2.3269765449457678,-2.018680411285749,6.021817883406631,2.1396198531072144,-9.942287964139197,-3.7855173812084018
2.3067897408329103,-2.1181032909271407,6.043214081937703,2.1017646792951306,-9.886373111233768,-3.345086247945506
2.285608707923639,-2.216967022039478,6.064231728730654,2.0683138168156754,-9.813547717454508,-2.8366712853691096
2.2634390377032445,-2.3151024992140234,6.084914866898811,2.039947103961984,-9.731578861333785,-2.267725516467974
2.2402880127111042,-2.4124182878273612,6.105314337938431,2.017269848797304,-9.647956719031644,-1.6450812788366045
2.216163829832831,-2.5088978550176777,6.125487036426404,2.000819036008938,-9.569807657027043,-0.9747184841663675
2.191074851282654,-2.6045959315879483,6.145495226786493,1.9910718511672743,-9.503868045914096,-0.26159484114345777
2.1650288919667746,-2.699634612047089,6.165405945298166,1.9884559027558397,-9.456509641924224,0.49047555371931006
2.1380325458463036,-2.7941997084663313,6.1852905043257245,1.9933606582930328,-9.433807500470698,1.278910233683586
2.11009054876164,-2.888537783471038,6.205224110908655,2.0061497606298686,-9.441642710748836,2.1024280138261022
2.0812051709269297,-2.9829542105785265,6.2252856085149535,2.02717404076813,-9.485834317731662,2.9611146501749266
2.051375628821144,-3.077812553755843,6.245557348922635,2.0567851872698792,-9.572297288594282,3.856498042310943
2.020597503283586,-3.173535526641786,6.266125200795333,2.0953501676929887,-9.707226070721783,4.791645889401703
1.988862148017168,-3.270607787349004,6.287078702472263,2.1432666265870055,-9.897306074262486,5.771298566607432
1.956156070143678,-3.3695808480916285,6.308511368738133,2.20097961225308,-10.149958270536876,6.802050498498328
1.9224602616627617,-3.4710804307969974,6.330521164860664,2.2690001172380634,-10.473625044820896,7.892594537467149
1.8877494573547917,-3.575816681245206,6.353211166033044,2.3479260626127347,-10.878108474405225,9.054045746332372
1.8519912905423397,-3.6845977659892584,6.376690426659171,2.4384665200760582,-11.374975197092322,10.30036324258324
1.815145312882447,-3.7983475179601816,6.401075091859932,2.5414701525018906,-11.978044560074641,11.648890623365581
1.7771618377028453,-3.918127963560928,6.426489793384951,2.657959058735546,-12.703977675936493,13.121035199762368
1.737980558067236,-4.045167740320293,6.453069383972307,2.78916941073317,-13.572981774172572,14.74309998050816
1.6975288806640332,-4.180897558062019,6.4809610780796385,2.9366004105382517,-14.609631140048865,16.54726182678316
1.655719905083413,-4.326993869462507,6.510327082185021,3.102073028806083,-15.843770792039088,18.572637027176913
1.612449966388788,-4.485431577382898,6.541347812473082,3.2877993990778522,-17.31138601894141,20.866255019559308
1.5675956506149589,-4.658545437572312,6.57422580646386,3.4964619492734452,-19.055135438476647,23.483495000636324
1.5210101962392357,-4.849096791957078,6.609190425956595,3.7312968992798083,-21.12384277785452,26.48696715056881
1.4725192283196649,-5.060335219735623,6.646503394949393,3.9961665707854963,-23.569384751198807,29.941604647692817
1.4219158761223087,-5.296029067247611,6.686465060657248,4.295582617262425,-26.43761514966624,33.9011941248912
1.3689555854498325,-5.560405218744274,6.729420886829873,4.634594558511337,-29.746301295869173,38.37640891998974
1.3133515332623897,-5.857868231702965,6.775766832414986,5.018358647711234,-33.43599090084235,43.26448089356789
1.2547728509453602,-6.192228140711388,6.8259504188920985,5.451003456646913,-37.26785490932845,48.203977873350105
1.1928505695382463,-6.564906689804673,6.880460453458568,5.933043235380414,-40.62972748132542,52.300241594841125
1.1272015026401996,-6.971203964617927,6.939790885812372,6.456045651328825,-42.22798518885903,53.69053910500495
1.0574894629940204,-7.393483816506517,7.004351342325661,6.992951042378874,-39.79908313212897,49.13877185356385
0.9835546248289552,-7.791474647827807,7.07428085274945,7.484338760914513,-30.472725879835107,34.55272242166193
0.905639878350677,-8.096201906626158,7.149124240358595,7.829865985131132,-12.97532122707353,8.102051416619773
0.8246778592844155,-8.225955118896893,7.227422900209906,7.91088649929733,8.840973927884464,-24.78726047912397
0.7424183080954465,-8.137545379618048,7.306531765202879,7.663013894506091,26.659517330915964,-52.34143384268567
0.661042854299266,-7.870950206308889,7.38316190414794,7.139599556079234,35.03920039535956,-66.77935941376856
0.5823333522361771,-7.520558202355293,7.454557899708732,6.4718059619415484,35.2450624343146,-69.75591962916135
0.5071277702126242,-7.168107578012147,7.519275959328147,5.774246765649935,31.254130146448666,-66.79276193271443
0.4354466944325028,-6.85556627654766,7.577018426984647,5.106319146322791,25.990806333236645,-61.983818687248764
0.3668910316670262,-6.595658213215294,7.628081618447874,4.4864809594503035,20.828966224303297,-57.268172837196026
0.30093444953487325,-6.387368550972261,7.672946428042377,3.913799231078343,16.238653237673145,-53.31773794273796
0.23706076402515064,-6.224982018595529,7.71208442035316,3.3806218516509636,12.303213766262738,-50.25419540249099
0.17481094383919535,-6.101949880932902,7.74589063886967,2.8780798976260535,8.972192784984367,-48.001061931153075
0.11379144502986632,-6.012227953083058,7.774671437845931,2.398069278314523,6.163946049864851,-46.42712889487476
0.05366916549903574,-5.9505884925844095,7.798652130629076,1.9337979893657753,3.8022497644235553,-45.397989764271806
-0.005836719426808357,-5.912565994940174,7.817990110522734,1.4798180917230572,1.8268662923364682,-44.7912775042353
-0.06496237937621009,-5.894297332016809,7.8327882914399645,1.0319053166807042,0.19456514132207559,-44.49875351881678
-0.12390535269637817,-5.892351680603588,7.843107344606771,0.5869177814925364,-1.1230175881062565,-44.4243401911308
-0.18282886950241406,-5.903581856484651,7.8489765224216965,0.14267437958122836,-2.142350322642882,-44.481525722682264
-0.24186468806726058,-5.92500535971108,7.8504032662175085,-0.3021408776455943,-2.8710332824038183,-44.5913478718484
-0.30111474166437135,-5.953715692535118,7.847381857441053,-0.7480543563640782,-3.310669579355532,-44.68129600964884
-0.3606518985897225,-5.986822388328673,7.839901313877412,-1.1948673164605665,-3.4595386958051835,-44.68512257955891
-0.42052012247300924,-6.021417775286725,7.827952640712807,-1.6417185422561555,-3.315052402737624,-44.54340013869683
-0.4807343002258765,-6.054568299314101,7.811535455290246,-2.087152543643124,-2.8759460177527294,-44.20457961506638
-0.5412799832190175,-6.083327759491628,7.790663929853815,-2.529198339793788,-2.1441276420799964,-43.62626398687265
-0.6021132608139338,-6.104769035912429,7.765371946455877,-2.9654609796625144,-1.1260969407750323,-42.77640625523283
-0.6631609511730581,-6.116030005320179,7.735717336659252,-3.393225042214843,0.1661376705230579,-41.634176180546035
-0.7243212512262599,-6.114368628614948,7.701785086237103,-3.809566804020303,1.7146703122628923,-40.190316592294415
-0.7854649375124094,-6.0972219254923194,7.6636894181969,-4.211469969943247,3.495803787913345,-38.446916068094595
-0.8464371567673327,-6.062263887613186,7.621574718497468,-4.595939130624193,5.480557217216295,-36.416638759218166
-0.9070597956434645,-6.007458315441023,7.575615327191226,-4.960105518216374,7.635440720936529,-34.121547547976405
-0.9671343787978748,-5.931103908231658,7.526014272009062,-5.301320993696138,9.923353307914752,-31.591710555552826
-1.0264454178801914,-5.83187037515251,7.473001062072101,-5.617238099251667,12.304485734434058,-28.863781602563826
-1.0847641216317165,-5.70882551780817,7.4168286810795845,-5.9058759152773055,14.737163302644483,-25.97969608536544
-1.1418523768097983,-5.5614538847817245,7.357769921926812,-6.16567287613096,17.178628392400853,-22.985542262474898
-1.1974669156576156,-5.389667600857716,7.296113193165502,-6.395528298755709,19.585819472250616,-19.930579765842456
-1.2513635916661927,-5.19380940613521,7.232157910177945,-6.594834096414133,21.916235056399678,-16.866308477314377
-1.3033016857275448,-4.974647055571213,7.166209569213804,-6.763497181187277,24.128967191868586,-13.845461421417088
-1.3530481562832568,-4.7333573836525265,7.098574597401932,-6.901951795401447,26.18594904795856,-10.92081326736072
-1.400381730119782,-4.471497893172941,7.029555079447917,-7.011159928075054,28.05339476670362,-8.14375639811255
-1.4450967090515114,-4.190963945505905,6.959443480167167,-7.092597492056179,29.703334728333196,-5.562682492513961
-1.4870063485065705,-3.893930598222573,6.888517505246605,-7.148224316981319,31.11508719261139,-3.221295065325309
-1.5259456544887964,-3.582779726296459,6.817035262076792,-7.180437267634573,32.27647694641059,-1.1570426335748074
-1.561773451751761,-3.260014956832353,6.745230889400446,-7.192007693970321,33.18462402239955,0.6001151843445743
-1.5943736013200844,-2.9281687166083574,6.673310812460743,-7.186006542126875,33.84617986450893,2.0284216758469102
-1.623655288486168,-2.589706917963268,6.6014507470394745,-7.165722325368406,34.27697190479706,3.114396289574054
-1.6495523576658007,-2.2469371989152975,6.5297935237857905,-7.1345783624726655,34.50111009741561,3.8522350682416566
-1.6720217296549535,-1.9019260979411414,6.458447740161064,-7.096056011790249,34.54968904649699,4.242594963706078
-1.6910409906343649,-1.5564292074761714,6.387487180043161,-7.0536300621531876,34.4592706952045,4.290887399856364
-1.7066052827091265,-1.2118365005241265,6.316950879421629,-7.010721188154624,34.270347962927055,4.0052430099228
-1.7187236477143677,-0.869133020894856,6.246843667540083,-6.970668758055395,34.02597144264865,3.3943122867018065
-1.7274149779233163,-0.5288733064683695,6.177136979959529,-6.9367256351883775,33.77067787174283,2.4650436235697586
-1.7327037109880001,-0.19116652775094117,6.107769723607645,-6.91207519895268,33.549800648909624,1.2205451944277665
-1.7346153762655097,0.14433147873815505,6.038648971618119,-6.8998697470084025,33.40917551914306,-0.341890883086516
-1.733172061478128,0.4784232339295857,5.969650274148035,-6.903288655839268,33.39517604197578,-2.2325205460132147
-1.7283878291388322,0.8123749943493435,5.900617387589642,-6.9256138612994,33.554905643399316,-4.470484448670722
-1.7202640791953387,1.1479240507833366,5.8313612489766475,-6.970318705786108,33.936192005050415,-7.084397932873319
-1.7087848386875053,1.4872859708338408,5.761658061918786,-7.04116268511484,34.586684275247364,-10.111390394658038
-1.6939119789791668,1.8331528135863144,5.6912464350676375,-7.142276589061421,35.550664563963224,-13.592840655806842
-1.6755804508433036,2.1886594592259465,5.619823669177023,-7.27820499561949,36.860810387609696,-17.563134725263904
-1.6536938562510441,2.5572675631020436,5.5470416192208285,-7.453836342872129,38.51947835459641,-22.024028635654457
-1.6281211806200238,2.9424623466480075,5.472503255792107,-7.674076629228673,40.45924266273858,-26.890371502612968
-1.5986965571535436,3.3470547732753935,5.395762489499821,-7.942980344254803,42.46495941622806,-31.882304720248904
-1.5652260094207897,3.7717043674376742,5.316332686057272,-8.261803391457292,44.03320287847745,-36.32951737825924
-1.527508965746413,4.212036396222449,5.2337146521427,-8.625098565239885,44.16029554525074,-38.87337508728886
-1.4853886017841884,4.653639351674956,5.147463666490301,-9.013832316112774,41.15421012260522,-37.195964195219545
-1.4388522082674389,5.065181452901008,5.057325343329174,-9.385791958064969,32.86895112646305,-28.326772649876713
-1.3882003937384289,5.393870964165639,4.963467423748524,-9.669059684563736,18.102597476186894,-10.558305805693399
-1.3342616840967725,5.574896938927507,4.866776826902886,-9.77464274262067,-0.9713771533753586,13.201747787433746
-1.2785127147074975,5.565183167393753,4.76903039947668,-9.642625264746334,-18.476855446657552,34.98130699384987
-1.2228608830335599,5.3804146129271775,4.672604146829217,-9.292812194807835,-29.24196786936429,47.80863403821159
-1.1690567369042881,5.087994934233534,4.579676024881139,-8.814725854425719,-32.74821467593482,51.08163629839735
-1.1181767875619528,4.760512787474186,4.491528766336882,-8.303909491441745,-31.608178686343425,48.40348624473818
-1.070571659687211,4.444431000610751,4.408489671422465,-7.819874628994363,-28.445081280262457,43.311038322480904
-1.0261273496811034,4.159980187808126,4.330290925132521,-7.3867642457695535,-24.787688560951544,37.81521390226876
-0.9845275478030222,3.912103302198611,4.256423282674825,-7.008612106746866,-21.30514744331551,32.75879895069022
-0.9454065147810361,3.699051827765456,4.186337161607356,-6.681024117239963,-18.21894115555518,28.390610255950474
-0.9084159965033816,3.5168624162099045,4.119526920434956,-6.3971180146804585,-15.558524346735792,24.71369177701172
-0.8732473723412825,3.361277172742547,4.055555740288152,-6.1499810969103414,-13.283311645407803,21.647861629609206
-0.839634600613857,3.2284440562884686,3.9940559293190483,-5.93350248061425,-11.334126162439379,19.096199369741118
-0.8073501600509723,3.115102794664075,3.934720904512906,-5.742540486916838,-9.65284030899193,16.969071063651672
-0.7761991321043316,3.0185743915741554,3.8772954996437377,-5.5728497762803215,-8.18872713993224,15.190864746029957
-0.74601338818859,2.936687120174833,3.8215670018809345,-5.420941128820022,-6.8996030858665955,13.700209718245349
-0.7166465169868417,2.8676910893161667,3.7673575905927343,-5.283939031637569,-5.75113598887161,12.448058444149808
-0.68796960609368,2.8101797294274506,3.7145182002763586,-5.159458447196071,-4.7156775875759,11.395315771184215
-0.6598678087994054,2.7630229535516917,3.662923615804398,-5.045505289484229,-3.771139642486665,10.51059749554008
-0.6322375792638885,2.725311557126825,3.6124685629095556,-4.940399314528828,-2.9000915131454357,9.76826246242139
-0.6049844636926202,2.6963106419953706,3.5630645697642676,-4.842716689904615,-2.089123928211103,9.146698611075283
-0.5780213572726665,2.6754194027132594,3.514637402865221,-4.751249703793862,-1.3284750806163939,8.626792193735549
-0.5512671632455338,2.6621346519070954,3.4671249058272826,-4.664981781856507,-0.6118971374751608,8.190506495955589
-0.5246458167264628,2.656015680532344,3.4204750880087174,-4.583076716896951,0.06327134701904831,7.819519187875441
-0.4980856599211394,2.6566483940025343,3.3746443208397476,-4.504881525018196,0.6958824256253026,7.493911829879421
-0.47151917598111404,2.6636072182587873,3.3295955055895656,-4.429942406719402,1.2806980894147686,7.190974474827671
-0.44488310379852614,2.676414199152935,3.2852960815223717,-4.358032661971125,1.8082034321129061,6.884285973356299
-0.4181189618069968,2.694496233474064,3.2417157549026605,-4.289189802237562,2.264740208812283,6.543350128668345
-0.3911739994722562,2.717143635562187,3.198823856880285,-4.223756300950878,2.633258161166688,6.134180658621277
-0.3640025631166343,2.743476217173854,3.156586293870776,-4.162414494364666,2.8950029410368856,5.621270782372423
-0.3365678009448958,2.7724262465842227,3.1149621489271295,-4.106201786540941,3.0323628373059948,4.971258455189973
-0.30884353847905355,2.8027498749572826,3.07390013106172,-4.0564892019890415,3.0328134975861376,4.1582071425147396
-0.2808160397294807,2.833078009933144,3.03333523904183,-4.014907130563894,2.893420508689561,3.169747161563982
-0.2524852596301493,2.8620122150200396,2.993186167736191,-3.983209658948254,2.6248073675714148,2.0125357491919282
-0.22386513747994888,2.888260288695754,2.953354071146708,-3.963084301456335,2.2531546313066073,0.7149973636985408
-0.19498253459299134,2.91079183500882,2.913723228132145,-3.9559343278193495,1.819001512423716,-0.674417783046176
-0.16587461624290314,2.928981850133057,2.8741638848539512,-3.9626785056498113,1.3725141766887539,-2.093961267146066
-0.13658479774157256,2.9427069918999447,2.834537099797453,-3.9836181183212718,0.9661842655912636,-3.4789584320458626
-0.10715772782257312,2.952368834555857,2.7947009186142404,-4.01840770264173,0.6469809767033541,-4.772968480510661
-0.07763403947701454,2.9588386443228907,2.754516841587823,-4.066137387446837,0.4501942152597893,-5.936563977362136
-0.048045653033785635,2.9633405864754887,2.713855467713355,-4.125503027220458,0.3964580148094076,-6.951625353552192
-0.018412247169030747,2.9673051666235826,2.67260043744115,-4.19501928075598,0.4921881249761291,-7.820838392051239
0.011260804497205078,2.9722270478733437,2.6306502446335904,-4.273227664676492,0.7325768051557546,-8.563640184577402
0.04098307497593852,2.9795528159249014,2.5879179679868254,-4.3588640665222655,1.1057952706261387,-9.210558185772035
0.07077860313518754,2.990610768631163,2.5443293273216026,-4.450969648379986,1.597173565926006,-9.797709461998002
0.10068471082149917,3.006582504290423,2.499819630837803,-4.5489467429999655,2.1925900404001344,-10.362562121428272
0.1307505358644034,3.0285084046944246,2.4543301634078034,-4.652572364214248,2.880804254339095,-10.941346644334093
0.16103561991134765,3.0573164472378154,2.407804439765661,-4.761985830657589,3.6548259884747933,-11.568002554612749
0.1916087843837258,3.093864707122563,2.3601845814590847,-4.877665856203716,4.512587988822418,-12.27431249002876
0.22254743145495143,3.1389905870107873,2.3114079228970477,-5.000408981104004,5.457224259662642,-13.09084697935503
0.2539373373250593,3.193562829607414,2.261403833086008,-5.131317450897554,6.497214174832402,-14.048423793319282
0.28587296562113346,3.258534971355738,2.210090658577032,-5.271801688830747,7.646586739345137,-15.179899671303763
0.3184583153346908,3.3350008387491896,2.1573726416887244,-5.423600685543785,8.925316466783226,-16.522214993536448
0.35180832372218274,3.4242540034170217,2.1031366348332865,-5.588822835479149,10.359988692730704,-18.11868139563785
0.38605086375635295,3.527853890344329,2.047248406478495,-5.7700096494355275,11.98475627733483,-20.02152193786327
