th1 (rad),w1 (rad/s),th2 (rad),w2 (rad/s),a1 (rad/s^2),a2 (rad/s^2)
0.47279703818390856,-2.996351414967933,4.924891873563979,1.3794048523402611,-3.1367942975889624,17.447946974748444
0.4428335240342292,-3.027719357943823,4.938685922087382,1.5538843220877456,-3.4708192973813006,17.757448013403692
0.41255633045479095,-3.062427550917636,4.954224765308259,1.7314588022217825,-3.8690229552475057,18.099625952624283
0.3819320549456146,-3.101117780470111,4.971539353330477,1.9124550617480254,-4.335531834281208,18.486304750322923
0.35092087714091347,-3.1444730988129233,4.990663903947957,2.0973181092512547,-4.875428146441994,18.930764263929692
0.31947614615278425,-3.193227380277343,5.011637085040469,2.2866257518905515,-5.494989064567894,19.447942285049255
0.28754387235001083,-3.2481772709230223,5.034503342559375,2.481105174741044,-6.201941805871304,20.054681283880477
0.25506209964078064,-3.3101966889817356,5.059314394306785,2.681651987579849,-7.005721290557495,20.770005471797326
0.22196013275096327,-3.3802539018873103,5.086130914182584,2.8893520422978223,-7.9177007133593715,21.61539026062169
0.18815759373209018,-3.459430909020904,5.115024434605562,3.1055059449040394,-8.95133303729081,22.614941156442633
0.15356328464188113,-3.5489442393938124,5.146079494054603,3.331655356468466,-10.122079421605253,23.795313520576364
0.118073842247943,-3.650165033609865,5.179396047619288,3.5696084916742294,-11.446883316434276,25.185042924701296
0.08157219191184434,-3.764633866774208,5.21509213253603,3.821458920921242,-12.942729325600407,26.812652482937953
0.04392585324410226,-3.894061160030212,5.2533067217452425,4.089585445750622,-14.623419447030432,28.70234052447559
0.0049852416438001396,-4.0402953545005165,5.294202576202749,4.376608850995377,-16.492961773059328,30.865027226066363
-0.035417711901205025,-4.20522497223111,5.337968664712703,4.685259123256041,-18.532679516827816,33.28074445663795
-0.07746996162351613,-4.390551767399388,5.384821255945263,5.01806656782242,-20.67707832478867,35.86545698066241
-0.12137547929751001,-4.597322550647275,5.435001921623487,5.376721137629044,-22.770789631906617,38.411575544012216
-0.16734870480398276,-4.825030446966341,5.488769132999777,5.7608368930691665,-24.497458807934347,40.489321503087126
-0.21559900927364617,-5.070005035045685,5.546377501930468,6.165730108100037,-25.279041770108247,41.30655921719264
-0.266299059624103,-5.322795452746767,5.608034803011469,6.5787957002719635,-24.18200066451077,39.577626297905255
-0.3195270141515707,-5.5646154593918755,5.673822760014189,6.974571963251016,-19.9700877245661,33.595747584755514
-0.37517316874548945,-5.7643163366375365,5.743568479646699,7.310529439098571,-11.589690758354148,21.908085567517958
-0.4328163321118648,-5.880213244221078,5.816673774037684,7.52961029477375,0.7405099865509057,4.832544385829968
-0.4916184645540756,-5.872808144355569,5.891969876985422,7.57793573863205,14.583321503581018,-14.230090168009921
-0.5503465459976313,-5.726974929319759,5.967749234371742,7.435634836951951,26.169061406147314,-30.044053460439457
-0.607616295290829,-5.465284315258286,6.042105582741262,7.135194302347556,33.00564168546317,-39.1781499777911
-0.6622691384434118,-5.135227898403654,6.113457525764737,6.743412802569646,35.21084465976461,-41.83987612114753
-0.7136214174274483,-4.783119451806008,6.180891653790433,6.325014041358171,34.39428485188729,-40.29537202257582
-0.7614526119455084,-4.439176603287135,6.244141794204015,5.922060321132412,32.14645816881412,-36.76390536844381
-0.8058443779783797,-4.117712021598994,6.30336239741534,5.5544212674479745,29.473937115350616,-32.64175130978663
-0.8470214981943697,-3.8229726504454877,6.35890661008982,5.228003754350108,26.875582047569655,-28.616475134770514
-0.8852512246988246,-3.554216829969791,6.411186647633321,4.941839003002403,24.55085299619541,-24.960297152785532
-0.9207933929985225,-3.308708300007837,6.4606050376633455,4.692236031474548,22.55205873180428,-21.74267847063064
-0.9538804759986008,-3.083187712689794,6.507527397978091,4.474809246768241,20.868011757501332,-18.94648063857356
-0.9847123531254988,-2.8745075951147805,6.552275490445774,4.285344440382505,19.464441383148863,-16.523779794493983
-1.0134574290766465,-2.679863181283292,6.5951289348495985,4.120106642437565,18.301940200251128,-14.420491585866198
-1.0402560608894793,-2.496843779280781,6.636330001273974,3.975901726578903,17.343213972846005,-12.586222538574422
-1.0652244986822872,-2.323411639552321,6.676089018539763,3.8500395011931587,16.55550805901581,-10.97749931401833
-1.0884586150778104,-2.157856558962163,6.714589413551694,3.7402645080529755,15.910977020809527,-9.558196910350382
-1.110037180667432,-1.9987467887540677,6.751992058632224,3.6446825389494717,15.386256710380017,-8.298894762068699
-1.1300246485549728,-1.8448842216502677,6.788438884021718,3.5616935913287846,14.961793193129498,-7.175915522690001
-1.1484734907714755,-1.6952662897189728,6.824055819935006,3.4899344361018847,14.621160067950875,-6.170357366870086
-1.1654261536686652,-1.549054689039464,6.858955164296025,3.4282308624331836,14.35045086346709,-5.267232596741046
-1.18091670055906,-1.4055501804047932,6.893237472920356,3.375558536465773,14.137770182844838,-4.45473996978977
-1.194972202363108,-1.2641724785763448,6.926993058285014,3.3310111367678754,13.972821520253463,-3.7236638447776196
-1.2076139271488715,-1.1244442633738103,6.9603031696526925,3.2937744983200994,13.84658055213489,-3.0668816042171825
-1.2188583697826096,-0.9859784578524614,6.993240914635893,3.2631056822779274,13.751040721298914,-2.478958877145697
-1.2287181543611343,-0.8484680506394723,7.025871971458673,3.2383160935064703,13.67901875158012,-1.9558139818786222
-1.237202834867529,-0.7116778631236711,7.058255132393738,3.218757953687684,13.62400942258589,-1.494436141134567
-1.2443196134987657,-0.5754377688978122,7.090442711930614,3.2038135922763384,13.580080674973095,-1.0926452994232685
-1.2500739911877439,-0.43963696214808123,7.122480847853378,3.1928871392821057,13.541801593761777,-0.748884378098392
-1.2544703608092247,-0.30421894621046347,7.154409719246199,3.1853982955011215,13.504196948374563,-0.46203741078410554
-1.2575125502713294,-0.16917697672671783,7.18626370220121,3.1807779213932803,13.462722773280264,-0.2312691979204393
-1.2592043200385965,-0.03454974899391519,7.218071481415143,3.178465229414076,13.413258015308168,-0.05588392445312412
-1.2595498175285356,0.0995828311591665,7.249856133709284,3.177906390169545,13.352107632236386,0.06479837962304155
-1.258553989216944,0.23310390748153037,7.28163519761098,3.1785543739657753,13.276012785174833,0.13154757860908828
-1.2562229501421287,0.3658640353332787,7.313420741350638,3.1798698497518663,13.182164004064465,0.1453106911234049
-1.252564309788796,0.4976856753739234,7.345219439848156,3.1813229566631005,13.068213491693152,0.10727962543020357
-1.2475874530350568,0.628367810290855,7.377032669414787,3.1823957529174027,12.93228312293311,0.0189383289312953
-1.2413037749321483,0.7576906415201861,7.408856626943962,3.1825851362067157,12.772965228811364,-0.1179113940752847
-1.2337268685169465,0.8854202938082997,7.440682478306029,3.181406022265963,12.589313942147747,-0.3011455357976902
-1.2248726655788635,1.011313433229777,7.472496538528689,3.178394566907986,12.38082570943171,-0.5283343146846669
-1.2147595312465658,1.1351216903240942,7.504280484197769,3.173111223761139,12.147408503578783,-0.7967777105694404
-1.2034083143433247,1.256595775359882,7.53601159643538,3.1651434466554447,11.88934024410972,-1.1035574191154243
-1.190842356589726,1.3754891778009792,7.567663030901935,3.1541078724642904,11.607217871094177,-1.4456015949853194
-1.1770874648117162,1.491561356511921,7.599204109626577,3.1396518565144373,11.301899348786202,-1.8197579839723983
-1.162171851246597,1.604580349999783,7.630600628191722,3.1214542766747133,10.974441522924161,-2.2228705370643773
-1.1461260477465993,1.7143247652290245,7.661815170958469,3.0992255713040695,10.626037167652026,-2.651854411981499
-1.1289828000943092,1.8205851369055448,7.69280742667151,3.0727070271842547,10.25795470362738,-3.1037644226320515
-1.1107769487252537,1.9231646839418186,7.723534496943352,3.041669382957934,9.871483945478822,-3.5758524798468643
-1.0915453018858354,2.0218795233966067,7.7539511907729315,3.0059108581594653,9.467890868425487,-4.065610330727948
-1.0713265066518693,2.1165584320808617,7.784010299354526,2.965254754852186,9.048383816291134,-4.570794878169652
-1.0501609223310608,2.207042270243773,7.813662846903048,2.9195468060704894,8.614092865753427,-5.089434463509218
-1.028090499628623,2.2931831989013074,7.8428583149637525,2.8686524614353974,8.166063278402785,-5.619815640615274
-1.00515866763961,2.374843831685335,7.871544839578107,2.8124543050292448,7.7052631728254735,-6.160451086088792
-0.9814102293227567,2.45189646341359,7.8996693826283995,2.750849794168357,7.232604782429651,-6.710030322071349
-0.9568912646886207,2.524222511237886,7.927177880570083,2.6837494909476436,6.7489779654838555,-7.267355840112658
-0.9316490395762419,2.591712290892725,7.9540153754795595,2.611075932546517,6.2552940211354615,-7.831267990201896
-0.9057319166673147,2.6542652311040795,7.980126134805024,2.532763252644498,5.7525373456375135,-8.400562635972395
-0.8791892643562739,2.7117906045604547,8.005453767331469,2.448757626284774,5.241822035144643,-8.973906079631728
-0.8520713583106693,2.764208824911901,8.029941343594317,2.359018565488457,4.724450201377295,-9.549752131607793
-0.8244292700615503,2.811453326925674,8.0535315292492,2.263521044172379,4.201968513762585,-10.126266435082663
-0.7963147367922936,2.8534730120633,8.076166739690924,2.1622583798215524,3.6762193241539807,-10.701263235767978
-0.7677800066716606,2.8902352053048395,8.09778932348914,2.055245747463873,3.149382686879248,-11.272159678161545
-0.7388776546186122,2.921729032173632,8.118341780963778,1.9425241506822573,2.6240056880223492,-11.835952363424074
-0.7096603642968758,2.9479690890538555,8.137767022470602,1.8241646270480165,2.1030157822907034,-12.389220266549838
-0.6801806734063373,2.9689992468767623,8.156008668741082,1.700272424382518,1.5897153444284406,-12.928157131798867
-0.6504906809375697,2.9848964003210465,8.173011392984908,1.5709908530645293,1.0877554084866292,-13.448635114789685
-0.6206417169343592,2.9957739544059128,8.188721301515553,1.4365045019166325,0.6010876071641374,-13.94629972235419
-0.5906839773903001,3.001784830477554,8.20308634653472,1.2970415046930905,0.13389461911880826,-14.41669407340961
-0.5606661290855246,3.003123776668742,8.216056761581651,1.1528745639589943,-0.30949907141181704,-14.855408283291824
-0.5306348913188372,3.000028785954624,8.22758550722124,1.0043204811260762,-0.7247327020877051,-15.258247540512915
-0.500634603459291,2.992781458933747,8.237628712032501,0.851738005720947,-1.1075260930961586,-15.621410430661015
-0.47070678886995354,2.9817061980027852,8.246146092089711,0.6955239014143368,-1.4538015483486972,-15.941667525677222
-0.44088972688992567,2.9671681825192984,8.253101331103855,0.5361072261575646,-1.7598035595310761,-16.21652944587439
-0.4112180450647327,2.9495701469239877,8.25846240336543,0.3739419316988207,-2.022208680511508,-16.444393709689443
-0.38172234359549284,2.9293480601188726,8.262201822682417,0.20949799460192625,-2.238218199336884,-16.624660807446904
-0.3524288629943041,2.906965878125504,8.264296802628436,0.04325138652745719,-2.4056271750233593,-16.757812036810577
-0.32335920421304903,2.88290960637527,8.26472931649371,-0.12432673384064857,-2.522864959945355,-16.84544454683571
-0.2945301081492963,2.8576809567758166,8.263486049155304,-0.2927811793090057,-2.589004339464262,-16.89026245982147
-0.26595329858153816,2.831790913381174,8.260558237362215,-0.4616838039072204,-2.603738662754079,-16.896026499813747
-0.23763538944772641,2.8057535267536333,8.255941399323143,-0.6306440689053578,-2.5673285521990334,-16.867467856511546
-0.2095778541801901,2.780080241231643,8.24963495863409,-0.7993187474704733,-2.480521710259483,-16.810174699781147
-0.18177705176787368,2.7552750241290482,8.241641771159385,-0.9674204944682847,-2.3444507867551456,-16.730461578622606
-0.1542243015265832,2.7318305162614966,8.231967566214703,-1.1347251102545108,-2.1605150975406007,-16.635232769403583
-0.12690599636396824,2.7102253652860906,8.220620315112157,-1.3010774379485466,-1.9302521595744344,-16.531850504059694
-0.09980374271110733,2.690922843690346,8.20760954073267,-1.4663959429891436,-1.6552045763814203,-16.428018056031657
-0.07289451427420386,2.6743707979265317,8.19294558130278,-1.6306761235494602,-1.3367868900376505,-16.331686120963653
-0.04615080629493855,2.661002929026155,8.176638820067286,-1.7939929847590967,-0.9761557727242653,-16.250989067102353
-0.019540777004676997,2.6512413712989122,8.158698890219695,-1.9565028754301204,-0.5740855414623468,-16.19421569935295
0.0069716367083121275,2.645500515884289,8.139133861465394,-2.11844503242365,-0.1308496199497219,-16.16981737679287
0.033426641867155014,2.6441920196847915,8.117949411141158,-2.2801432061915787,0.35389259346430646,-16.186454751556482
0.05986856206400293,2.6477309456194345,8.095147979079242,-2.4420077537071436,0.8812048010280656,-16.25308304460808
0.08634587152019726,2.656542993629715,8.07072790154217,-2.6045385841532243,1.4529804392872863,-16.379074478124952
0.11291130145649442,2.6710727980225877,8.044682515700638,-2.768329328934474,2.0720479447437117,-16.5743748794851
0.1396220294367203,2.691793277470025,8.016999222411293,-2.934073077729325,2.7422739368373317,-16.84968889029077
0.16653996221142056,2.719216016838398,7.987658491634,-3.102569966632233,3.4686597955524565,-17.216683495162183
0.19373212237980453,2.7539026147939225,7.956632791967677,-3.2747368015838547,4.257419899380682,-17.688190723685718
0.22127114852774377,2.7964768137877294,7.923885423951838,-3.4516187088207118,5.1160167031022965,-18.27837388349267
0.24923591666562106,2.8476369808187525,7.889369236863631,-3.6344024476556385,6.053104482532977,-19.002791431728117
0.2777122864738086,2.9081680256440823,7.853025212387075,-3.8244303619729196,7.078292200121709,-19.878237826713285
0.3067939667302494,2.9789509476452993,7.814780908767346,-4.023212740240052,8.20156298210941,-20.92214258740276
0.33658347620670237,3.0609665774663934,7.774548781364945,-4.23243416611408,9.432059795330012,-22.15113481431533
0.3671931419813663,3.1552871754196934,7.7322244397038045,-4.453945514257233,10.775725168578527,-23.57807616826426
0.3987460137355633,3.263044427105479,7.6876849845612325,-4.689726275939876,12.230906546237735,-25.206345307609496
0.43137645800661806,3.385353492567856,7.640787721801834,-4.94178972901597,13.780426804168872,-27.01930521684517
0.4652299929322966,3.523157760609545,7.591369824511674,-5.211982781184422,15.377706987992237,-28.961605578142308
0.500461570538392,3.6769348304894676,7.53924999669983,-5.501598836965845,16.92342848310485,-30.907410016379476
0.5372309188432867,3.846169115320516,7.484234008330172,-5.810672937129639,18.228735819917297,-32.60988579378309
0.5756926099964919,4.028456473519689,7.426127278958876,-6.13677179506747,18.963901054484353,-33.63020817714438
0.6159771747316888,4.218095484064532,7.364759561008201,-6.473073876838914,18.60485491716465,-33.26286382170827
0.6581581295723341,4.404144033236179,7.3000288222398115,-6.805702515055996,16.42638816434328,-30.524437360655025
0.7021995699046959,4.568407914879612,7.231971797089251,-7.110946888662546,11.652806658461369,-24.359231306476264
0.747883649053492,4.684935981464226,7.160862328202626,-7.3545392017273095,3.897898996327948,-14.244622424135573
0.7947330088681342,4.723914971427505,7.087316936185353,-7.496985425968665,-6.19162607746332,-1.0766172466639115
0.8419721585824093,4.661998710652872,7.012347081925666,-7.507751598435305,-16.697808161494564,12.50912221949334
0.888592145688938,4.495020629037927,6.937269565941313,-7.382660376240372,-25.280013868900436,23.320399715474903
0.9335423519793172,4.242220490348923,6.863442962178909,-7.149456379085622,-30.578526865728147,29.54372487954975
0.9759645568828065,3.9364352216916414,6.791948398388053,-6.8540191302901246,-32.72299349581723,31.42160793814488
1.0153289090997228,3.609205286733469,6.723408207085152,-6.5398030509086755,-32.68695360124665,30.337920335839705
1.0514209619670576,3.2823357507210025,6.658010176576065,-6.236423847550278,-31.485993968537993,27.70791545642148
1.0842443194742677,2.9674758110356225,6.595645938100562,-5.959344692986064,-29.827762229133096,24.50544021327164
1.113919077584624,2.6691981887442915,6.536052491170701,-5.714290290853348,-28.109013232674414,21.269408041474318
1.1406110594720669,2.3881080564175474,6.478909588262168,-5.5015962104386045,-26.51810310300567,18.25128290240207
1.1644921400362422,2.1229270253874906,6.423893626157781,-5.3190833814145835,-25.12685648799293,15.54423099150613
1.1857214102901172,1.8716584605075612,6.370702792343636,-5.163641071499522,-23.948771501763105,13.163943936373716
1.2044379948951929,1.6321707454899301,6.31906638162864,-5.032001632135785,-22.97093248765661,11.092461414658192
1.2207597023500922,1.402461420613364,6.268746365307282,-4.9210770179892025,-22.170148035444985,9.300042641813796
1.2347843165562258,1.1807599402589142,6.2195355951273905,-4.828076591571064,-21.52060953726335,7.755350810696152
1.246591915958815,0.9655538448862806,6.17125482921168,-4.750523083464103,-20.997250485137876,6.4297687337209615
1.2562474544076778,0.7555813400349018,6.123749598377039,-4.686225396126893,-20.577015784129824,5.2988900580388085
1.2638032678080269,0.5498111821936036,6.07688734441577,-4.633236495546505,-20.239162223024767,4.3427133653514565
1.2693013796299628,0.34741955996335594,6.030554979460304,-4.589809361892991,-19.96514480971521,3.5452835289119147
1.2727755752295964,0.14776811186620384,5.984656885841375,-4.554356526603872,-19.73835706664573,2.8941323823284204
1.2742532563482585,-0.04961545880025345,5.939113320575336,-4.525415202780588,-19.543850607033587,2.3796779381315956
1.273757101760256,-0.2450539648705893,5.89385916854753,-4.501618423399272,-19.368088987679105,1.9946485435562105
1.2713065621115502,-0.4387348547473804,5.848842984313537,-4.48167193796371,-19.198756579245114,1.733555105817837
1.2669192135640763,-0.6307224205398315,5.8040262649339,-4.464336386905531,-19.02462671096094,1.5922156683157627
1.260611989358678,-0.820968687649441,5.7593829010648445,-4.448414230222373,-18.83548549593069,1.567329616278629
1.2524023024821835,-1.009323542608748,5.7148987587626205,-4.432740934059587,-18.622104006166783,1.6560973633633744
1.2423090670560961,-1.1955445826704159,5.6705713494220245,-4.4161799604259535,-18.376249657519484,1.8558823614199622
1.230353621229392,-1.3793070792456108,5.626409549817765,-4.397621136811754,-18.090726783015548,2.163914067454265
1.216560550436936,-1.5602143470757663,5.582433338449648,-4.375981996137211,-17.75943601801126,2.577032247123633
1.2009584069661783,-1.737808707255879,5.538673518488276,-4.350211673665975,-17.37744218523513,3.091474242537247
1.1835803198936194,-1.9115831291082304,5.495171401751616,-4.319296931240602,-16.941040870850184,3.7027073601823144
1.164464488602537,-2.0809935378167324,5.45197843243921,-4.282269857638779,-16.447814868933904,4.405308273959414
1.1436545532243698,-2.2454716865060713,5.409155733862822,-4.238216774899185,-15.896673151645079,5.192890347010502
1.1211998363593092,-2.4044384180225222,5.366773566113831,-4.18628787142908,-15.287866937351868,6.058078224152702
1.097155452179084,-2.557317087396041,5.32491068739954,-4.125707089187553,-14.622979639945772,6.992527195226611
1.0715822813051237,-2.703546883795499,5.283653616507665,-4.055781817235286,-13.90488977916587,7.986982996653283
1.0445468124671686,-2.8425957815871574,5.243095798335312,-3.9759119872687534,-13.137708061507428,9.031376231076397
1.016120854651297,-2.9739728622022317,5.203336678462624,-3.8855982249579895,-12.326691552524473,10.114944722192174
0.9863811260292746,-3.0972397777274763,5.164480696213044,-3.784448777736068,-11.4781389520281,11.226377058904985
0.9554087282519999,-3.2120211672477574,5.126636208435683,-3.672185007147018,-10.599271345612276,12.353971348624555
