th1 (rad),w1 (rad/s),th2 (rad),w2 (rad/s)
2.35410252174232,-2.722077578077283,5.717914498323784,0.9364709576244882
2.3268817459615474,-2.792348179875454,5.727279207900029,0.9367520378609882
2.298958264162793,-2.8632606407658487,5.736646728278639,0.9398721306932458
2.2703256577551345,-2.9344715242538317,5.746045449585571,0.9466155381003479
2.2409809425125964,-3.005671705795079,5.755511604966575,0.9577373791115682
2.2109242254546455,-3.076597922855379,5.76508897875769,0.9739478822509385
2.1801582462260916,-3.147042654313025,5.7748284575802,0.9958995990882878
2.1486878196829613,-3.21686203570634,5.784787453571083,1.0241781713139815
2.116519199325898,-3.285981696849734,5.795029235284223,1.0592970358184788
2.0836593823574003,-3.3544005798037952,5.805622205642408,1.1016962102422063
2.0501153765593623,-3.422192944561125,5.81663916774483,1.1517450888425056
2.015893447113751,-3.48950888954293,5.828156618633255,1.2097490115516984
1.9809983582183217,-3.5565738022005347,5.840254108748772,1.275959256734063
1.9454326201963164,-3.623687214358086,5.8530137013161125,1.3505860532389742
1.9091957480527355,-3.691221573283056,5.866519561848502,1.433814208427111
1.872283532319905,-3.7596214606258544,5.880857703932773,1.525821002036724
1.8346873177136465,-3.8294038061529077,5.896115913953141,1.6267960964584236
1.7963932796521174,-3.9011596609830854,5.912383874917725,1.736963358264558
1.7573816830422866,-3.9755581256531833,5.9297535085003705,1.8566046715243456
1.7176261017857548,-4.053353082251433,5.948319555215614,1.9860860510299205
1.6770925709632405,-4.135393468514372,5.968180415725913,2.125886636979114
1.6357386362780968,-4.22263796792438,5.989439282095704,2.276631479740512
1.593512256598853,-4.316175187494477,6.012205596893109,2.439129415690674
1.5503505047239083,-4.41725066834099,6.036596891050015,2.614417806482478
1.5061779980404983,-4.527302434168352,6.06274106911484,2.803816474777659
1.460904973698815,-4.648007226982161,6.090779233862617,3.008993811899142
1.4144249014289934,-4.781340067617974,6.120869171981608,3.2320486966441693
1.3666115007528137,-4.929650175562095,6.15318965894805,3.4756123544382125
1.3173149989971926,-5.095756222782799,6.187945782492433,3.742974082261623
1.2663574367693646,-5.283062473554221,6.225375523315049,4.038232584823881
1.2135268120338225,-5.495692408840819,6.265757849163288,4.366467454154799
1.1585698879454143,-5.738622855404967,6.309422523704836,4.73390590889204
1.1011836593913646,-6.017767598658587,6.356761582793756,5.148011653954345
1.0410059834047787,-6.339877881849955,6.408241699333299,5.617307606496656
0.9776072045862791,-6.711938420163977,6.464414775398265,6.1504785056728615
0.9104878203846394,-7.139322218563178,6.5259195604549936,6.753715553605426
0.8390945981990076,-7.621149274306814,6.5934567159910475,7.424115983261505
0.7628831054559394,-8.140129695393233,6.667697875823663,8.135316832562829
0.6814818085020071,-8.644524229179085,6.749051044149291,8.812049150355213
0.5950365662102163,-9.029675290594794,6.8371715356528435,9.30414028366993
0.5047398133042683,-9.156773234969483,6.930212938489543,9.413036183218017
0.4131720809545735,-8.95380820905439,7.024343300321723,9.034144985765291
0.32363399886402955,-8.508655944743662,7.114684750179376,8.288299048691016
0.23854743941659293,-7.988912954165049,7.197567740666286,7.40966200860011
0.15865830987494245,-7.507939030851946,7.271664360752287,6.557536765652935
0.08357891956642298,-7.105000481441648,7.337239728408816,5.787803911872483
0.0125289147520065,-6.781660216956037,7.395117767527541,5.103395713439897
-0.05528768741755387,-6.5276891207107015,7.44615172466194,4.490447988908613
-0.12056457862466088,-6.331380477660982,7.491056204551026,3.932802413892497
-0.18387838340127072,-6.182542293590832,7.530384228689951,3.4163172922741167
-0.24570380633717903,-6.072946738848625,7.564547401612693,2.929627467002742
-0.3064332737256653,-5.996056507960938,7.59384367628272,2.4638881233527803
-0.3663938388052747,-5.946621373646661,7.618482557516248,2.0123314537364005
-0.4258600525417413,-5.920313777638488,7.638605872053612,1.569872159135449
-0.48506319031812617,-5.913437773306979,7.654304593644966,1.1328074260940104
-0.544197568051196,-5.922707736043114,7.665632667905906,0.6986012060515028
-0.6034246454116272,-5.945085851447975,7.672618679966421,0.26572971850749666
-0.662875503926107,-5.9776685635400355,7.675275977151496,-0.16643496974912342
-0.7226521895615073,-6.017614807243089,7.6736116274540045,-0.5977230597525036
-0.7828283376339382,-6.0621107683703,7.66763439685648,-1.0272623494890685
-0.8434494453176412,-6.108366578472181,7.657361773361589,-1.4535816482736057
-0.904533111102363,-6.153639855903661,7.642825956878853,-1.8747281331589671
-0.9660695096613996,-6.195279750072937,7.624078675547263,-2.2883993000355445
-1.028022307162129,-6.230783711238989,7.601194682546908,-2.692085246053719
-1.090330144274519,-6.257858222088722,7.574273830086371,-3.0832130935094035
-1.1529087264954063,-6.274474709342793,7.543441699151277,-3.4592831317491823
-1.2156534735888342,-6.278913058102891,7.508848867833785,-3.817986150874553
-1.278442604169863,-6.269787479402299,7.470669006325039,-4.157293444384657
-1.341140478963886,-6.246052508006762,7.429096071881193,-4.475514545847987
-1.4036010040439537,-6.206990023924241,7.384340926422713,-4.771322067479752
-1.4656709042831961,-6.152180799507425,7.336627705747915,-5.043747074390436
-1.5271927122782705,-6.081465758090811,7.286190235004011,-5.292151492291771
-1.5880073698591786,-5.994902738948797,7.233268720081093,-5.5161856990743035
-1.6479563972486666,-5.892724195844261,7.17810686309035,-5.715739664093656
-1.7068836392071092,-5.775300175358103,7.120949466449414,-5.8908950359748555
-1.7646366409606902,-5.643109446863907,7.062040516089665,-6.041883848885313
-1.8210677354293292,-5.496720080655332,7.001621677600812,-6.169057438520809
-1.8760349362358826,-5.336779312981797,6.939931103215604,-6.272867077261682
-1.9294027293657006,-5.164011334011976,6.877202432442987,-6.353855990691047
-1.9810428427058204,-4.97922075889448,6.813663872536076,-6.412660943590835
-2.0308350502947654,-4.783299021951021,6.7495372631001676,-6.450020549093476
-2.0786680405142755,-4.577230772845492,6.685037057609232,-6.466786880903315
-2.1244403482427305,-4.3620975363019125,6.6203691888002,-6.463936847634564
-2.1680613236057495,-4.139076388715538,6.555729820323854,-6.442580088208034
-2.209452087492905,-3.909432145527384,6.491304019441773,-6.4039608079201775
-2.248546408948179,-3.6745024536263413,6.427264411362572,-6.3494519040570685
-2.2852914334844425,-3.435676129997434,6.363769892322001,-6.280540804939612
-2.319648194784417,-3.1943659569590555,6.300964484272605,-6.198807524774587
-2.3515918543540075,-2.951977820417955,6.2389764090248585,-6.105896377027392
-2.381111632558187,-2.7098784762651915,6.177917445254584,-6.003483474346269
-2.4082104173208387,-2.4693643142030686,6.1178826105111215,-5.893242502111601
-2.4329040604628696,-2.2316332738088764,6.058950185490006,-5.776811271052289
-2.455220393200958,-1.9977616168870629,6.001182072779483,-5.655761272714794
-2.4751980093698287,-1.7686866655408353,5.944624460052335,-5.531571961895951
-2.492884876025237,-1.5451959781399784,5.889308740433376,-5.405610874895385
-2.5083368358066367,-1.3279228456678516,5.835252631684422,-5.279120062583731
-2.5216160642633154,-1.1173475140774867,5.782461431058584,-5.153208754972988
-2.5327895394040905,-0.9138032088251082,5.730929343508854,-5.028851732833056
-2.5419275714923417,-0.7174858611583586,5.6806408261805235,-4.906892585280411
-2.5491024301039253,-0.5284663951921753,5.631571900327719,-4.788050877728252
-2.5543870940558473,-0.34670450011225573,5.5836913915504365,-4.672932221746328
-2.55785413905697,-0.1720629480008221,5.536962069332973,-4.562040297451242
-2.559574768536978,-0.004321691578761028,5.49134166635846,-4.455789998164162
-2.559617985452766,0.15680883972945203,5.446783766376819,-4.354521017384088
-2.5580498970554713,0.31167565232226,5.403238556202978,-4.258511356587743
-2.5549331405322486,0.4606725634152409,5.3606534426371,-4.167990382592155
-2.5503264148980964,0.6042311667587363,5.3189735388111785,-4.08315119498819
-2.5442841032305092,0.7428134200189274,5.278142026861296,-4.004162172219436
-2.53685596903032,0.8769058132909523,5.238100405139102,-3.931177647463692
-2.5280869108974104,1.007015028049843,5.198788628664465,-3.8643477228044274
-2.518016760616912,1.1336649612660308,5.160145151436421,-3.8038272631785546
-2.506680111004252,1.2573949639696183,5.122106878804635,-3.7497841207144353
-2.4941061613645554,1.378759120128124,5.084609037597491,-3.7024066242660734
-2.4803185701632744,1.4983263621829583,5.04758497135483,-3.6619103245164313
-2.4653353065414447,1.6166811740811524,5.010965868109666,-3.6285439043356527
-2.449168494800633,1.7344245582655826,4.974680429066309,-3.6025940338390097
-2.431824249217977,1.852174822226755,4.938654488727919,-3.5843887484605546
-2.4133025009957096,1.970567548132943,4.9028106012433135,-3.5742986238084278
-2.39359682551438,2.090253810975993,4.867067615005229,-3.5727345654455087
-2.37269428740462,2.211895258850306,4.8313402693507745,-3.5801403582825877
-2.350575334816117,2.3361540013124062,4.7955388657679485,-3.5969771413024825
-2.327213794802993,2.4636742961189446,4.759569094354924,-3.623695586514096
-2.3025770518418036,2.595051718461122,4.723332138489783,-3.660689677156868
-2.2766265346571926,2.730783841863934,4.686725241718214,-3.7082236006132163
-2.249318696238553,2.8711946495181198,4.6496430057120826,-3.766320668224316
-2.220606749743372,3.0163235735469778,4.6119797990298395,-3.834601257386192
-2.190443514007902,3.165770782754143,4.573633786455978,-3.912057739779253
-2.1587858061803606,3.318496216371022,4.5345132090581854,-3.9967626144842536
-2.1256008440166503,3.4725860113743585,4.494545582913343,-4.085528861166497
-2.0908749839029066,3.6250324799839646,4.453690294301678,-4.173587519230383
-2.054624659103067,3.7716243491431087,4.4119544191093745,-4.254419178939733
-2.0169084156116357,3.907097140787147,4.369410227319977,-4.319951817546138
-1.9778374442037643,4.0257009823974785,4.326210709144516,-4.361349087149439
-1.9375804343797896,4.122230194490156,4.282597218273022,-4.370455318675998
-1.896358132434888,4.193295721658436,4.2388926650862615,-4.341593009541775
-1.8544251752183036,4.238338386239612,4.1954767349908435,-4.273008091016473
-1.8120417913559075,4.2598579714024964,4.152746654080679,-4.167221706723726
-1.7694432116418826,4.262713259810589,4.111074437013442,-4.030077611554145
-1.7268160790437768,4.252866617766228,4.0707736608979,-3.8690020850220135
-1.6842874128661145,4.236164406043354,4.03208364004768,-3.691302149386722
-1.641925768805681,4.217550603273484,3.9951706185538125,-3.503060285333647
-1.599750262772946,4.20077455690372,3.960140015700476,-3.3087148251753904
-1.5577425172039088,4.1884438164914215,3.927052867448722,-3.1111213772149817
-1.5158580790389946,4.182237918495441,3.895941653676572,-2.9118404916385128
-1.4740356998540403,4.183154126725779,3.866823248760187,-2.7114727104757517
-1.4322041585867824,4.191721661898874,3.8397085216554294,-2.509952930722596
-1.3902869419677937,4.208164962970929,3.8146089923482034,-2.3067770966283705
-1.3482052923380843,4.232518108602742,3.7915412213819195,-2.1011642671041173
-1.3058801112520568,4.264699987470948,3.770529578710878,-1.8921675554919668
-1.2632331113773474,4.3045604863128935,3.7516079031559584,-1.6787484854684318
-1.2201875065142185,4.3519061811930655,3.734820418301274,-1.4598269243528206
-1.176668444702288,4.406511788216708,3.720222149057746,-1.2343157304511791
-1.1326033268201208,4.468121708067579,3.707878991753234,-1.0011466165004248
-1.087922109739445,4.53644456370471,3.69786752558823,-0.7592917214378652
-1.042557664102398,4.6111426465361465,3.6902746083738514,-0.507783931924431
-0.9964462376370364,4.691817561045878,3.685196769054607,-0.2457379578331696
-0.9495280620265777,4.777993001483216,3.6827393894762754,0.027626599055786016
-0.9017481320117455,4.869095435612799,3.6830156554668334,0.3129595487151543
-0.8530571776556175,4.964433456115955,3.686145250953985,0.6107516784594551
-0.8034128430944579,5.063176648214308,3.6922527677385797,0.9213039624854196
-0.7527810766123149,5.164334975957489,3.7014658073634337,1.2446952802966176
-0.70113772685274,5.266739873168115,3.7139127601663997,1.5807499794191582
-0.6484703281210589,5.369028399633897,3.729720259960591,1.9290070505062493
-0.5947800441247199,5.4696319479706785,3.7490103304656537,2.2886930343491163
-0.5400837246450131,5.566771022222392,3.771897260809145,2.658700996560934
-0.48441601442278914,5.658457524237382,3.7984842707747544,3.0375779343972447
-0.42783143918041533,5.742505762923992,3.8288600501187267,3.4235227857627843
-0.3704063815511754,5.816553053084267,3.8630952779763543,3.81439678990958
-0.3122408510203327,5.878090329905177,3.90123924587545,4.207747343291133
-0.25345994772128094,5.924502729779422,3.9433167193083616,4.600845787467161
-0.1942149204234867,5.953119643345817,3.989325177183033,4.990738873896548
-0.13468372399002854,5.9612733836439,4.039232565921998,5.37431308850765
-0.07507099015358953,5.946365343401916,4.092975696807075,5.748370664195976
-0.015607336719570375,5.905938296545628,4.150459403449035,6.109715963784354
0.0434520462458859,5.837753228785621,4.211556563086878,6.455250887099829
0.10182957853374211,5.739868626230386,4.276109071957877,6.782077868943349
0.15922826479604596,5.610719390721251,4.34392985064731,7.087608681792145
0.2153354587032585,5.449191447586486,4.414805937465231,7.369676476543162
0.26982737317912336,5.254686768434927,4.4885027022306625,7.626647262088843
0.32237424086347266,5.027172222882382,4.564769174851551,7.857525522729106
0.3726459630922965,4.767204819363114,4.643344430078842,8.062047305274387
0.4203180112859276,4.4759259673111425,4.723964903131586,8.24075343238127
0.46507727095903906,4.155018756530698,4.806372437455399,8.395036074492175
0.506627458524346,3.8066249926608187,4.89032279820032,8.527154102205895
0.5446937084509542,3.4332225414810007,4.975594339222379,8.640216433260841
0.5790259338657642,3.0374677152222724,5.061996503554988,8.73813752756859
0.6094006110179869,2.6220110355729167,5.149377878830673,8.825574453718918
0.6356207213737161,2.189296817800673,5.237633623367863,8.90785960310141
0.6575136895517227,1.7413570613269256,5.326712219398877,8.990946364006712
0.6749272601649919,1.2796080957492861,5.416621683038945,9.081386428611887
0.6877233411224848,0.8046550021360113,5.507435547325064,9.186356724340895
0.6957698911438449,0.3161054945457526,5.599299114568472,9.313750928767668
0.6989309460893024,-0.18760561399228054,5.692436623856149,9.472343622910012
0.6970548899493796,-0.7093728503165826,5.787160060085249,9.672019295541991
0.6899611614462138,-1.2535223631366703,5.883880253040669,9.92401975347113
0.6774259378148471,-1.8257532571011472,5.98312045057538,10.24106704114453
0.6591684052438356,-2.4326334079303535,6.0855311209868255,10.636980539942591
0.6348420711645321,-3.0799454951455054,6.191900926386252,11.124835995819113
0.604042616213077,-3.7682587296309475,6.303149286344443,11.711442410233987
0.5663600289167675,-4.482437223108422,6.420263710446783,12.383570370341705
0.5215356566856832,-5.170542844017546,6.5440994141502,13.079476541954632
0.4698302282455078,-5.714999542471798,6.674894179569746,13.64915628867264
0.4126802328207898,-5.935894400067519,6.811385742456472,13.857453572499688
0.3533212888201146,-5.706804647795247,6.949960278181469,13.539887796936256
0.2962532423421621,-5.11264546573808,7.085359156150831,12.813649936990583
0.2451267876847813,-4.374990383760887,7.213495655520737,11.971279036502244
0.20137688384717245,-3.6509677872203254,7.333208445885759,11.210965064128064
0.16486720597496918,-2.994423569723311,7.44531809652704,10.591957774527446
0.13492297027773606,-2.40818574822036,7.551237674272315,10.108616101614178
0.11084111279553246,-1.8802330649821257,7.652323835288457,9.73878482027348
0.0920387821457112,-1.3970561222846085,7.749711683491192,9.460583434487381
0.07806822092286513,-0.947215816379683,7.844317517836066,9.256231418158963
0.0685960627590683,-0.5217994822859697,7.936879832017655,9.112023414601742
0.06337806793620859,-0.11409037687371376,8.028000066163672,9.017468398716865
0.06223716416747146,0.2808622187484972,8.11817475015084,8.96442772693813
0.06504578635495643,0.6666003365697584,8.207819027420221,8.94642881105743
0.07171178972065402,1.0455204991972453,8.297283315530796,8.958154587511864
0.08216699471262648,1.4190596376018016,8.386864861405915,8.995073174444993
0.0963575910886445,1.7878267197659694,8.476815593150365,9.053173735368013
0.1142358582863042,2.1517007943607793,8.567347330504045,9.128783540229216
0.135752866229912,2.5099124093284995,8.658635165906338,9.218449397446681
0.160851990323197,2.861121697617619,8.750819659880804,9.318872231134446
0.1894632072993732,3.203502840354924,8.844008382192149,9.426886517016221
0.22149823570292243,3.5348408115063865,8.938277247362311,9.539476923746673
0.2568466438179863,3.8526420893632918,9.033672016599779,9.653823362313586
0.29537306471161917,4.1542565035654935,9.130210250222914,9.767363438184217
0.3369156297472741,4.4370030403201115,9.227883884604756,9.877858943794537
0.38128566015047527,4.698289003684139,9.3266624740427,9.983451554059236
0.4282685501873167,4.935710261497511,9.426496989583294,10.082693231283775
0.4776256528022918,5.14712102341915,9.527323921896132,10.174539568886125
0.5290968630364833,5.3306648643678605,9.629069317584992,10.258299359888582
0.5824035116801619,5.484764070509039,9.731652311183879,10.333540365564403
0.6372511523852523,5.608070876694795,9.834987714839523,10.399958424144963
0.6933318611522002,5.699390579051259,9.938987299080972,10.457223446034837
0.7503257669427128,5.757591759676869,10.043559533541321,10.504820574661961
0.8079016845394815,5.781522238628974,10.148607739287941,10.541907460743298
0.8657169069257713,5.769950557634312,10.254026813895374,10.567209258107383
0.9234164125021144,5.721551700528539,10.359698906476448,10.578971781781302
0.9806319295073997,5.634952214938159,10.465488624294261,10.574990194555085
1.0369814516567812,5.508843562646585,10.571238526239812,10.552725052258877
1.092069887283247,5.34216297681034,10.6767657767624,10.509508664202162
1.1454915170513504,5.134328371599918,10.781860863404422,10.4428319206166
1.1968348007673497,4.885499144030403,10.886289182610588,10.350685627432902
1.2456897922076537,4.5968210029509695,10.989796038884917,10.2319136631849
1.2916580022371635,4.270604847142088,11.092115175516765,10.086522806496879
1.3343640507085843,3.9103920575774325,11.192980403581734,9.915891693939027
1.3734679712843587,3.520874113237252,11.292139320521123,9.722833246049154
1.4086767124167312,3.107661456178493,11.389367652981615,9.511490753669982
1.439753326978516,2.676928165375983,11.484482560518316,9.287081594454234
1.466522608632276,2.2349854011720423,11.577353376462858,9.055534122787082
1.4888724626439964,1.7878491442000213,11.667908717690729,8.823082708213146
1.5067509540859967,1.340863081682467,11.75613954477286,8.595887948025052
1.5201595849028213,0.8984186991581189,11.84209842425311,8.37973524866222
1.5291437718944025,0.4637892832617057,11.925895776739733,8.179842033082304
1.5337816647270195,0.03907082122262434,12.007694197070556,8.000780149486138
1.5341723729392458,-0.3747937485893092,12.087701998565418,7.846502052158776
1.5304244354533527,-0.7779381207811327,12.166167019087005,7.720449801793384
1.5226450542455414,-1.1714753946056808,12.24337151710494,7.6257244129622705
1.5109303002994847,-1.5574069793130145,12.319628761234563,7.565297225517454
1.4953562305063546,-1.938558464910094,12.395281733489737,7.542252038180408
1.4759706458572537,-2.318557390607574,12.470704253871542,7.5600543462017
1.452785071951178,-2.701862729104853,12.546304797333558,7.622850183344968
1.4257664446601295,-3.0938504218069105,12.622533299167008,7.735799293597893
1.3948279404420603,-3.5009494657962,12.699891292102988,7.905440445750889
1.3598184457840983,-3.930798813781588,12.778945696560497,8.140057600432659
