th1 (rad),w1 (rad/s),th2 (rad),w2 (rad/s),a1 (rad/s^2),a2 (rad/s^2)
2.2965778006582998,-1.1673974122185304,2.629332914295036,-1.9028610207122132,-7.695828814947218,2.0250678587448703
2.2849038265361146,-1.2443557003680026,2.6103043040879137,-1.8826103421247644,-7.716062152695334,1.8510162678414812
2.2724602695324347,-1.321516321894956,2.591478200666666,-1.8641001794463496,-7.734352078967615,1.6730832492243477
2.259245106313485,-1.3988598426846321,2.5728371988722025,-1.8473693469541062,-7.750553100736049,1.4908179855754926
2.245256507886639,-1.4763653736919926,2.5543635054026614,-1.8324611670983513,-7.764370068289796,1.3035604272737273
2.230492854149719,-1.5540090743748907,2.536038893731678,-1.819425562825614,-7.775361073588751,1.1104483834196295
2.21495276340597,-1.6317626851107783,2.517844638103422,-1.8083210789914177,-7.782942522406426,0.9104282735305927
2.198635136554862,-1.7095921103348426,2.4997614273135076,-1.7992167962561119,-7.78639620822479,0.7022694496741774
2.1815392154515134,-1.7874560724170905,2.4817692593509464,-1.79219410175937,-7.784878280089865,0.4845820989580899
2.1636646547273424,-1.8653048552179892,2.463847318333353,-1.7873482807697891,-7.7774300452205445,0.25583880873970516
2.1450116061751623,-1.9430791556701945,2.445973835525655,-1.7847898926823922,-7.762990572825244,0.014399910210361468
2.1255808146184605,-2.020709061398447,2.428125936598831,-1.7846458935802885,-7.740411063097758,-0.24145729861271742
2.105373724004476,-2.0981131720294246,2.4102794776630283,-1.7870604665664156,-7.708470911772208,-0.5135054176899216
2.084392592284182,-2.1751978811471466,2.3924088729973643,-1.792195520743315,-7.665895335565153,-0.8035299886529185
2.0626406134727104,-2.251856834502798,2.3744869177899313,-1.800230820629844,-7.611374330026652,-1.1132889856515007
2.0401220451276822,-2.3279705778030646,2.356484609583633,-1.8113637104863591,-7.543582614972935,-1.4444692444687037
2.0168423393496515,-2.403406403952794,2.3383709724787693,-1.8258084029310462,-7.461200093804072,-1.7986405761397055
1.9928082753101235,-2.4780184048908347,2.320112888449459,-1.8437948086924432,-7.362932225435723,-2.177208579317107
1.9680280912612151,-2.551647727145192,2.3016749403625343,-1.8655668944856143,-7.247529598376228,-2.581367421764001
1.9425116139897631,-2.6241230231289543,2.283019271417678,-1.8913805687032543,-7.113805924829502,-3.012054077063338
1.9162703837584736,-2.6952610823772494,2.2641054657306454,-1.9215011094738876,-6.960653657991216,-3.4699056481482593
1.889317772934701,-2.7648676189571617,2.2448904546359065,-1.9562001659553703,-6.787056495070602,-3.9552214571722333
1.8616690967451295,-2.8327381839078676,2.2253284529763526,-1.9957523805270927,-6.592098174114341,-4.46793151056699
1.833341714906051,-2.898659165649011,2.2053709291710817,-2.0404316956327624,-6.374967208819325,-5.007572748307096
1.8043551232495607,-2.962408837737204,2.184966612214754,-2.090507423115833,-6.1349575268665095,-5.57327416031118
1.7747310348721888,-3.023758413005869,2.1640615379835957,-2.146240164718945,-5.8714653680444915,-6.1637514182544395
1.7444934507421301,-3.082473066686314,2.1425991363364063,-2.207877678901489,-5.583983233034148,-6.777311159271143
1.713668720075267,-3.1383128990166553,2.1205203595473914,-2.2756507904942005,-5.27209211956899,-7.41186451056647
1.6822855910851005,-3.191033820212345,2.0977638516424495,-2.3497694355998653,-4.935453704146986,-8.064948906362675
1.650375252882977,-3.2403883572538152,2.0742661572864507,-2.430418924663492,-4.573804490960637,-8.73375676296316
1.6179713693104387,-3.2861264021634216,2.0499619680398156,-2.5177564922931235,-4.1869542287934935,-9.415169174965849
1.5851101052888046,-3.3279959444513567,2.0247844031168842,-2.611908184042782,-3.77479107629291,-10.105792489016604
1.551830145844291,-3.3657438552142858,1.9986653212764565,-2.712966108932948,-3.337296075371538,-10.801995392282535
1.518172707292148,-3.399116815968001,1.971535660187127,-2.8209860628557735,-2.874569485367159,-11.499943989391468
1.484181539132468,-3.4278625108216727,1.9433257995585693,-2.935985502749688,-2.3868714641711053,-12.19563218152106
1.4499029140242512,-3.4517312254633836,1.9139659445310724,-3.0579418245648986,-1.8746794940983,-12.884904436593333
1.4153856017696174,-3.4704780204043666,1.8833865262854235,-3.186790868930832,-1.338764882667669,-13.563467673830843
1.3806808215655737,-3.4838656692310432,1.8515186175961151,-3.3224255456691405,-0.7802906645761374,-14.226888403670838
1.3458421648732632,-3.4916685758768047,1.8182943621394236,-3.464694429705849,-0.20093332718786314,-14.870570400915744
1.3109254791144953,-3.4936779091486834,1.7836474178423651,-3.613400133715006,0.39696900149021797,-15.48970700509881
1.2759887000230086,-3.489708219133781,1.747513416505215,-3.7682972037659943,1.0102389340078857,-16.079200639829306
1.2410916178316707,-3.4796058297937025,1.7098304444675552,-3.929089210164287,1.6346494206747233,-16.633540394496652
1.2062955595337337,-3.4632593355869554,1.6705395523659123,-4.095424614109254,2.264676909573016,-17.146626702257947
1.1716629661778641,-3.4406125664912253,1.6295853062248198,-4.266890881131833,2.8932144776025153,-17.611530644338774
1.137256840512952,-3.4116804217152,1.5869163974135014,-4.443006187575221,3.511242257318407,-18.020174865647913
1.1031400362958,-3.376567999142016,1.5424863355377492,-4.6232079362317,4.107455080826828,-18.36292459260818
1.0693743563043798,-3.3354934483337475,1.4962542561754322,-4.806837182157782,4.667852839666662,-18.628082532079603
1.0360194218210423,-3.288814919937081,1.4481858843538544,-4.993118007478578,5.1753095470218,-18.801293092515035
1.0031312726216715,-3.237061824466863,1.3982547042790687,-5.181130938403728,5.6091551219545694,-18.86488301003836
0.9707606543770029,-3.180970273247317,1.3464433948950314,-5.369779768504111,5.944832671839653,-18.79720155982307
0.9389509516445297,-3.1215219465289206,1.2927455972099904,-5.557751784102342,6.153736493686966,-18.572078558481458
0.9077357321792405,-3.059984581592051,1.237168079368967,-5.743472569687157,6.203393006290598,-18.158594427009056
0.8771358863633201,-2.997950651529145,1.1797333536720955,-5.925058513957247,6.058213385736264,-17.521448638684237
0.8471563798480286,-2.9373685176717825,1.1204827685325232,-6.10027300034409,5.681106019477599,-16.622300835331707
0.8177826946713108,-2.8805574574770065,1.0594800385290823,-6.266496008697406,5.036253238390804,-15.422497866907444
0.7889771200965408,-2.8301949250930987,0.9968150784421083,-6.420720987366481,4.093271521523914,-13.887514478238305
0.7606751708456098,-2.7892622098778594,0.9326078685684435,-6.559596132148864,2.832715729479264,-11.9931306716813
0.7327825487468311,-2.7609350525830667,0.8670119072469549,-6.679527438865677,1.2524083519698141,-9.732778837300001
0.7051731982210004,-2.7484109690633685,0.8002166328582981,-6.776855227238677,-0.6265779088681935,-7.124673787660626
0.6776890885303668,-2.7546767481520504,0.7324480805859114,-6.8481019651152835,-2.756060957224348,-4.216567503692429
0.6501423210488463,-2.782237357724294,0.6639670609347585,-6.890267640152207,-5.060952487545147,-1.0857533665450407
0.6223199474716034,-2.8328468825997457,0.5950643845332365,-6.9011251738176576,-7.444787283360122,2.167213295447245
0.5939914786456059,-2.907294755433347,0.5260531327950599,-6.8794530408631855,-9.800278516063607,5.430652472324917
0.5649185310912724,-3.005297540593983,0.45725860238642807,-6.825146516139936,-12.022703525783795,8.596980281266148
0.5348655556853326,-3.125524575851821,0.3890071372250287,-6.739176713327275,-14.022689999990865,11.576774879411747
0.5036103099268143,-3.2657514758517294,0.32161537009175595,-6.623408964533158,-15.735167481068508,14.307822253040046
0.470952795168297,-3.4231031506624143,0.2553812804464244,-6.480330742002757,-17.12279207004084,16.75732211466875
0.43672176366167287,-3.5943310713628227,0.1905779730263968,-6.31275752085607,-18.174147038266806,18.91795673665338
0.40077845294804465,-3.776072541745491,0.12745039781783613,-6.123577953489536,-18.89844880570542,20.800226143063924
0.36301772753058975,-3.965057029802545,0.06621461828294076,-5.915575692058897,-19.31887881070642,22.42379172901424
0.3233671572325643,-4.158245817909609,0.007058861362351787,-5.691337774768755,-19.46621600949481,23.80986857748709
0.2817846990534682,-4.352907978004557,-0.049854516385335765,-5.453239088993884,-19.373668925682555,24.97564801411846
0.23825561927342262,-4.546644667261383,-0.10438690727527461,-5.2034826088527,-19.07312255547518,25.930851961359675
0.1927891726008088,-4.737375892816135,-0.1564217333638016,-4.9441740892391035,-18.59260495211187,26.676025352911395
0.14541541367264746,-4.923301942337254,-0.20586347425619264,-4.67741383570999,-17.954630872703216,27.20202421264745
0.09618239424927491,-5.1028482510642865,-0.25263761261329254,-4.405393593583515,-17.17510719944477,27.490227904681433
0.04515391173863204,-5.274599323058734,-0.2966915485491277,-4.130491314536701,-16.262600795825488,27.51318100676282
-0.0075920814919552965,-5.437225331016989,-0.3379964616944947,-3.8553595044690727,-15.217919593057221,27.235586249573043
-0.06196433480212518,-5.589404526947561,-0.37655005673918546,-3.583003641973342,-14.034116144951739,26.615795309325584
-0.1178583800716008,-5.729745688397078,-0.4123800931589189,-3.316845688880086,-12.697175629328541,25.60816134306376
-0.17515583695557158,-5.856717444690363,-0.44554855004771976,-3.0607640754494483,-11.187774789940557,24.166791758936057
-0.2337230114024752,-5.968595192589769,-0.4761561908022142,-2.8190961578600877,-9.48454396539658,22.25129417386561
-0.2934089633283729,-6.063440632243735,-0.5043471523808151,-2.5965832161214317,-7.569141234552141,19.83490813491007
-0.35404336965081024,-6.139132044589256,-0.5303129845420294,-2.398234134772331,-5.433042553904326,16.91479469146534
-0.4154346900967028,-6.193462470128299,-0.5542953258897527,-2.2290861878576775,-3.085198643249138,13.52312586880293
-0.4773693147979858,-6.224314456560791,-0.5765861877683295,-2.093854929169648,-0.558725299963827,9.736162364049433
-0.5396124593635937,-6.229901709560429,-0.597524737060026,-1.9964933055291538,2.0859869896242613,5.677385066848023
-0.601911476459198,-6.209041839664186,-0.6174896701153175,-1.9397194548606735,4.764234292132787,1.5109973833330013
-0.6640018948558398,-6.161399496742859,-0.6368868646639243,-1.9246094810273435,7.376946735693698,-2.575456483400842
-0.7256158898232684,-6.087630029385922,-0.6561329594741977,-1.950364045861352,9.825789989745632,-6.396431806996029
-0.7864921901171277,-5.989372129488466,-0.6756365999328112,-2.0143283639313125,12.029038594119443,-9.79487500888982
-0.8463859114120124,-5.869081743547271,-0.6957798835721244,-2.112277114020211,13.933182442865055,-12.662021803346034
-0.905076728847485,-5.729749919118621,-0.7169026547123265,-2.2388973320536714,15.517066182542798,-14.945398935727747
-0.9623742280386712,-5.574579257293193,-0.7392916280328632,-2.3883513214109486,16.78855683695241,-16.644787417165745
-1.0181200206116032,-5.406693688923669,-0.7631751412469727,-2.554799195582606,17.776346920849672,-17.799978704649643
-1.0721869575008398,-5.228930219715172,-0.7887231332027987,-2.7327989826291024,18.520336745595756,-18.475595487270013
-1.1244762596979916,-5.043726852259215,-0.8160511230290898,-2.9175549375018024,19.063278797664058,-18.747242827379942
-1.1749135282205838,-4.853094064282574,-0.8452266724041078,-3.105027365775602,19.444964913958497,-18.691194082118667
-1.2234444688634096,-4.658644415142989,-0.8762769460618638,-3.2919393065967886,19.699040777917038,-18.377982232817306
-1.2700309130148395,-4.461654007363819,-0.9091963391278317,-3.4757191289249616,19.851880960238127,-17.869211450425517
-1.3146474530884777,-4.263135197761438,-0.9439535304170813,-3.654411243429217,19.9227868546204,-17.21656838083688
-1.3572788050660922,-4.063907329215233,-0.9804976428513734,-3.8265769272375856,19.92487053368446,-16.462104966700416
-1.3979178783582447,-3.8646586238783884,-1.0187634121237492,-3.9911979769045898,19.866179196986423,-15.639117238790007
-1.4365644645970286,-3.665996831908524,-1.0586753918927951,-4.1475891492924895,19.75079646482437,-14.773200437884864
-1.4732244329161137,-3.4684888672602803,-1.10015128338572,-4.295321153671338,19.579792030402825,-13.883258303219513
-1.5079093215887165,-3.272690946956252,-1.1431044949224334,-4.434153736703533,19.351978984299254,-12.982375800057298
-1.540636231058279,-3.0791711571132594,-1.1874460322894687,-4.563977494704106,19.06449022842695,-12.078544035041466
-1.5714279426294118,-2.88852625482899,-1.2330858072365096,-4.68476293505452,18.71321485671774,-11.175271577476792
-1.6003132051777016,-2.7013941062618128,-1.2799334365870547,-4.796515650829288,18.293152137385075,-10.27214240936195
-1.6273271462403198,-2.518462584887962,-1.3278985930953475,-4.899237074922907,17.798750650488298,-9.36539640654256
-1.6525117720891995,-2.340475078383079,-1.3768909638445765,-4.992891038988333,17.22430517237023,-8.448617274957792
-1.6759165228730304,-2.168232026659377,-1.4268198742344598,-5.077377211737911,16.5644824302338,-7.5136137439186665
-1.697598843139624,-2.0025872023570392,-1.4775936463518389,-5.152513349177098,15.815034071988675,-6.551566405044119
-1.7176247151631945,-1.8444368616371525,-1.5291187798436099,-5.218029013227539,14.973724167709095,-5.55447542544787
-1.736069083779566,-1.6946996199600615,-1.5812990699758853,-5.273573767482017,14.04144281163623,-4.516874167813307
-1.7530160799791668,-1.554285191843699,-1.6340348076507054,-5.318742509160151,13.023395889425263,-3.437668090233009
-1.7685589318976038,-1.4240512329494464,-1.687222232742307,-5.353119190062481,11.930165035450884,-2.321830968876783
-1.7827994442270982,-1.3047495825949376,-1.7407534246429317,-5.376337499751249,10.778350239538296,-1.1815793121606277
-1.7958469400530477,-1.1969660801995545,-1.7945167996404443,-5.388153292872855,9.590485205045038,-0.0366104086836978
-1.8078166008550431,-1.1010612281491041,-1.8483983325691729,-5.388519396959691,8.393996776192777,1.0869100619427454
-1.8188272131365342,-1.0171212603871764,-1.9022835265387699,-5.377650296340264,7.2191792252224865,2.158667094651094
-1.828998425740406,-0.9449294681349516,-1.9560600295021726,-5.3560636253937535,6.0964294818118505,3.1475177029051586
-1.8384477204217555,-0.8839651733168331,-2.00962066575611,-5.324588448364702,5.05324082916047,4.025178012143228
-1.847287372154924,-0.8334327650252285,-2.0628665502397574,-5.28433666824327,4.111565600891084,4.769487843064201
-1.8556216998051762,-0.7923171090163176,-2.11570991692219,-5.236641789812628,3.2860690962558117,5.366576768902864
-1.8635448708953395,-0.7594564180537595,-2.1680763348203165,-5.1829760221236,2.5835397681720695,5.811588914402954
-1.871139435075877,-0.7336210203720388,-2.2199060950415523,-5.12486013297957,2.003406239813827,6.1080308131067635
-1.8784756452795974,-0.7135869579739005,-2.2711546963713483,-5.063779824848503,1.5390644688114938,6.266123897496966
-1.8856115148593364,-0.6981963132857856,-2.3217924946198334,-5.001118585873533,1.1796105121942073,6.300677555162451
-1.8925934779921942,-0.6864002081638435,-2.371803680478569,-4.938111810321908,0.9116033507755636,6.22895567380381
-1.8994574800738326,-0.6772841746560879,-2.421184798581788,-4.875822253583871,0.720594832531254,6.068860655195044
-1.9062303218203935,-0.6700782263307754,-2.4699430211176265,-4.81513364703192,0.5922967691499782,5.837586952270614
-1.9129311040837014,-0.6641552586392756,-2.5180943575879455,-4.756757777509214,0.5133644411711086,5.5507578903746
-1.9195726566700941,-0.6590216142275646,-2.5656619353630377,-4.701250198605468,0.4718439345466238,5.221975860265696
-1.9261628728123699,-0.6543031748820983,-2.612674437349092,-4.649030440002811,0.4573604570770421,4.862682103475692
-1.932705904561191,-0.6497295703113279,-2.6591647417491204,-4.600403618968054,0.4611276893201058,4.482222267618359
-1.9392032002643043,-0.6451182934181269,-2.705168777938801,-4.5555813962918705,0.47584672941158396,4.088031261803616
-1.9456543831984856,-0.640359826124011,-2.7507245919017196,-4.514701083673835,0.49554660986742705,3.6858737028651043
-1.9520579814597256,-0.6354043600253367,-2.795871602738458,-4.4778423466451835,0.5154021933372067,3.2800975747086807
-1.958412025059979,-0.6302503380919646,-2.8406500262049095,-4.445041370898097,0.5315519704061491,2.8738757390423846
-1.9647145284408987,-0.6249348183879031,-2.8851004399138906,-4.416302613507673,0.5409284843543877,2.469422132772539
-1.9709638766247777,-0.6195255335443592,-2.9292634660489676,-4.391608392179948,0.5411074529784555,2.068177501752286
-1.9771591319602213,-0.6141144590145747,-2.973179549970767,-4.370926617162425,0.5301774653103135,1.6709643527200222
-1.9833002765503671,-0.6088126843614716,-3.0168888161423912,-4.354216973635225,0.50662970111642,1.2781134239075027
-1.989388403393982,-0.6037463873503074,-3.0604309858787433,-4.34143583939615,0.46926586788630864,0.8895651626233539
-1.995425867267485,-0.5990537286714444,-3.1038453442727048,-4.332540187769916,0.41712203538961856,0.5049500251706276
-2.0014164045541993,-0.5948825083175482,-3.1471707461504037,-4.3274906875182095,0.3494059673190729,0.12365126661509968
-2.007365229637375,-0.5913884486443575,-3.190445653025586,-4.326254174852059,0.26544570352183905,-0.2551464889185873
-2.0132791141238187,-0.5887339916091391,-3.2337081947741066,-4.328805639741245,0.16464741093312782,-0.6324200647702605
-2.01916645403991,-0.5870875174998078,-3.276996251171519,-4.335129840388947,0.04646082397584467,-1.0092795585320538
-2.025037329214908,-0.5866229092600493,-3.3203475495754087,-4.345222635974268,-0.0896491034280868,-1.3869472141178207
-2.0309035583075086,-0.5875194002943303,-3.3637997759351514,-4.359092108115446,-0.24422543055320145,-1.766741722627537
-2.0367787523104517,-0.5899616545998623,-3.407390697016306,-4.376759525341721,-0.4178381880552803,-2.150066615748118
-2.0426783688564503,-0.594140036480415,-3.451158292269723,-4.398260191499202,-0.6110996718799845,-2.5384016288858935
-2.048619769221254,-0.6002510331992149,-3.495140894184715,-4.423644207788061,-0.824676472588415,-2.9332960620695205
-2.0546222795532465,-0.6084977979250991,-3.5393773362625955,-4.452977168408756,-1.059298442142722,-3.3363632594014496
-2.0607072575324974,-0.6190907823465263,-3.583907107946683,-4.48634080100277,-1.3157646071695588,-3.7492753660230567
-2.066898165355963,-0.6322484284182218,-3.628770515956711,-4.523833554663001,-1.5949458403555237,-4.173757507107134
-2.073220649640145,-0.648197886821777,-3.674008851503341,-4.565571129734072,-1.8977838904235502,-4.611580466246744
-2.0797026285083624,-0.6671757257260126,-3.7196645628006815,-4.611686934396539,-2.225286136052115,-5.064550818628614
-2.0863743857656227,-0.6894285870865338,-3.765781432144647,-4.662332442582826,-2.578515159525862,-5.534497293355535
-2.093268671636488,-0.7152137386817924,-3.812404756570475,-4.717677415516381,-2.958571920718443,-6.023251893116536
-2.100420809023306,-0.7447994578889768,-3.859581530725639,-4.777909934447547,-3.366570939780138,-6.532623980474442
-2.1078688036021958,-0.7784651672867782,-3.9073606300701145,-4.843236174252292,-3.803605456476385,-7.064365139894734
-2.1156534552750634,-0.8165012218515421,-3.9557929918126375,-4.9138798256512395,-4.270700015718484,-7.62012213519446
-2.123818467493579,-0.8592082220087269,-4.00493179006915,-4.9900810470031844,-4.7687473260073405,-8.201374697643113
-2.1324105497136663,-0.9068956952688003,-4.054832600539181,-5.072094793979615,-5.298425550412976,-8.809354200416381
-2.141479506666354,-0.9598799507729301,-4.105553548478977,-5.160188335983779,-5.860091430146905,-9.444938511087752
-2.1510783061740835,-1.018480865074399,-4.157155431838815,-5.254637721094657,-6.4536438399547755,-10.108517494293386
-2.1612631148248274,-1.0830173034739468,-4.209701809049761,-5.355722896037591,-7.078351594378805,-10.799822820204021
-2.1720932878595667,-1.1538008194177347,-4.263259038010137,-5.4637211242396315,-7.732638673063931,-11.517715025244106
-2.183631296053744,-1.231127206148374,-4.3178962492525335,-5.578898274492072,-8.413819688881352,-12.259920341533649
