th1 (rad),w1 (rad/s),th2 (rad),w2 (rad/s),a1 (rad/s^2),a2 (rad/s^2)
1.158091276542306,-2.835435732711668,4.653377989333237,1.0234302174621566,-5.82826776368213,7.100119634924388
1.1297369192151892,-2.8937184103484896,4.663612291507859,1.0944314138114004,-5.391366879049546,8.007731316219784
1.1007997351117043,-2.947632079138985,4.674556605645973,1.1745087269735983,-4.98151939008163,8.908542024231759
1.0713234143203143,-2.9974472730398016,4.686301692915709,1.2635941472159158,-4.610255285916403,9.789540567290215
1.0413489415899162,-3.0435498258989657,4.698937634387868,1.361489552888818,-4.288404645293895,10.639525849100377
1.0109134433309266,-3.0864338723519045,4.712552529916756,1.4678848113798217,-4.02572027802228,11.449780895022789
0.9800491046074076,-3.1266910751321273,4.727231378030554,1.5823826203300497,-3.8306045481929023,12.214595724602027
0.9487821938560863,-3.164997120614056,4.743055204233855,1.70452857757607,-3.7099651807017295,12.931607899171626
0.9171322226499458,-3.2020967724210734,4.7601004900096155,1.8338446565677862,-3.6692117130347706,13.6019527753001
0.8851112549257351,-3.238788889551421,4.778438936575293,1.9698641843207871,-3.7123907437067056,14.230239183173115
0.8527233660302208,-3.275912796988488,4.798137578418501,2.1121665761525183,-3.842446551432526,14.824386863640958
0.8199642380603359,-3.3143372625028134,4.819259244180026,2.2604104447889277,-4.061585849947408,15.39537690306797
0.7868208654353078,-3.3549531210022874,4.841863348627915,2.4143642138196073,-4.371722424293345,15.956974412018475
0.7532713342252849,-3.398670345245221,4.866006990766111,2.573933957939792,-4.774979274649936,16.52548416740969
0.7192846307728327,-3.44642013799172,4.8917463303455095,2.7391887996138893,-5.274232011595542,17.119596510639713
0.6848204293929154,-3.4991624581076755,4.919138218341648,2.9103847647202863,-5.8736864663031225,17.76037482005473
0.6498288048118387,-3.5578993227707065,4.948242065988851,3.0879885129208335,-6.579494512961666,18.471429800425774
0.6142498115841316,-3.6236942679003232,4.97912195111806,3.2727028109250913,-7.400423719755347,19.279321605024492
0.5780128689051284,-3.697698505097877,5.011848979227311,3.465496026975336,-8.348607449341959,20.214229335727648
0.5410358838541496,-3.7811845795912964,5.0465039394970646,3.6676383203326126,-9.440410822667944,21.310927917306785
0.5032240380582366,-3.875588687817976,5.08318032270039,3.8807475995056806,-10.697451425679263,22.610110772824104
0.4644681511800568,-3.9825632020747688,5.121987798695447,4.1068487072339215,-12.147804650875083,24.16008299573035
0.4246425191593091,-4.10404124858352,5.163056285767786,4.348449537191225,-13.827385541630177,26.01880032038099
0.38360210667347394,-4.242315103999822,5.206540781139699,4.608637540395035,-15.781393862715298,28.256090898554913
0.3411789556334757,-4.400129042626975,5.2526271565436495,4.8911984493805845,-18.06545031923625,30.95554947501904
0.29717766520720595,-4.580783545819337,5.3015391410374555,5.200753944130775,-20.74544386852327,34.214765543654686
0.25136982974901256,-4.788237984504569,5.353546680478763,5.542901599567322,-23.893713864817002,38.14062759551221
0.2034874499039669,-5.027175123152739,5.408975696474436,5.924307875522444,-27.576036111651977,42.83208070211136
0.1532156986724395,-5.302935484269259,5.46821877522966,6.352628682543557,-31.816916965414013,48.33303126591644
0.10018634382974692,-5.621104653923399,5.531745062055096,6.835958995202722,-36.5160765946129,54.517678288583376
0.04397529729051293,-5.986265419869528,5.600104652007123,7.381135778088556,-41.261990954294234,60.83267562061158
-0.015887356908182354,-6.398885329412471,5.673916009788009,7.989462534294672,-44.95599840140376,65.77474130212339
-0.07987621020230706,-6.848445313426508,5.7538106351309555,8.647209947315906,-45.20409074914454,66.04191042787178
-0.14836066333657216,-7.3004862209179535,5.840282734604115,9.307629051594624,-37.88444236230219,55.92511117927362
-0.2213655255457517,-7.6793306445409755,5.933359025120061,9.86688016338736,-18.685553219309135,29.44517289385225
-0.29815883199116144,-7.866186176734066,6.032027826753935,10.161331892325883,11.055691694999343,-11.515160925592992
-0.37682069375850213,-7.755629259784073,6.133641145677194,10.046180283069953,39.71882121283671,-50.790568797303216
-0.4543769863563429,-7.358441047655706,6.234102948507894,9.53827459509692,55.08818861479406,-71.49393423623064
-0.5279613968329,-6.807559161507766,6.329485694458863,8.823335252734614,56.892742532488356,-73.39450487644659
-0.5960369884479777,-6.2386317361828825,6.417719046986209,8.089390203970147,51.88728240237643,-65.93124240894781
-0.6584233058098066,-5.719758912159119,6.49861294902591,7.430077779880669,45.196833610115675,-56.19233498968895
-0.7156208949313978,-5.267790576057962,6.572913726824717,6.86815442998378,38.964029600812964,-47.10681429138618
-0.7682988006919774,-4.878150280049832,6.6415952711245545,6.397086287069918,33.75682780955537,-39.42896173883258
-0.8170803034924757,-4.540582001954278,6.705566133995253,6.002796669681592,29.571636609353646,-33.13268160748851
-0.8624861235120185,-4.244865635860742,6.765594100692069,5.671469853606707,26.25126300863826,-27.98732071370213
-0.9049347798706259,-3.982353005774359,6.822308799228136,5.391596646469686,23.625601067891182,-23.749353413128162
-0.9447583099283695,-3.746096995095447,6.876224765692832,5.154103112338404,21.55009111340138,-20.213659622234136
-0.982219279879324,-3.5305960839614334,6.9277657968162165,4.951966516116062,19.910807867409545,-17.219534046047674
-1.0175252407189384,-3.331488005287338,6.977285461977377,4.779771175655585,18.620188546499914,-14.644330812250395
-1.0508401207718117,-3.1452861198223387,7.025083173733933,4.633327867533081,17.611174261259336,-12.395273481005736
-1.082292981970035,-2.9691743772097454,7.071416452409264,4.509375132723024,16.831995529471808,-10.40238457853745
-1.1119847257421325,-2.8008544219150275,7.116510203736494,4.405351286937649,16.242031866487388,-8.613054199647
-1.1399932699612827,-2.6384341032501535,7.16056371660587,4.3192207449411795,15.808647020155272,-6.988064973265957
-1.1663776109937842,-2.4803476330486007,7.203755924055282,4.24934009520852,15.504791452467632,-5.498749024724235
-1.1911810873242703,-2.3252997185239246,7.246249325007367,4.194352604961278,15.307180809591578,-4.124974727321614
-1.2144340845095096,-2.172227910428009,7.28819285105698,4.1531028576880615,15.19490667290058,-2.8537168251156197
-1.2361563636137898,-2.020278843699003,7.32972387963386,4.124565689436905,15.148383934655595,-1.6780139545139845
-1.2563591520507797,-1.8687950043524468,7.3709695365282295,4.107785549891766,15.14857992354652,-0.596154449471786
-1.2750471020943042,-1.7173092051169816,7.412047392027147,4.101824005397048,15.17650262381293,0.3890435896145435
-1.292220194145474,-1.5655441788788522,7.453065632081118,4.105714441293193,15.21294870593257,1.2709735651729328
-1.3078756359342625,-1.4134146918195265,7.4941227764940495,4.118424176944922,15.238525584022954,2.040100664288585
-1.3220097828524577,-1.2610294359792968,7.535307018263499,4.138825183587808,15.233963307433429,2.6850149972211366
-1.3346200772122507,-1.1086898029049626,7.576695270099377,4.165675333560019,15.180719396751254,3.193716091368529
-1.3457069752413005,-0.95688260893745,7.618352023434976,4.197612494473704,15.061851360640006,3.5551171470519662
-1.355275801330675,-0.80626409533105,7.660328148379714,4.2331636659442236,14.86308906562906,3.76069392833005
-1.3633384422839854,-0.6576332046747595,7.702659785039156,4.270770605227524,14.57398859335789,3.8061340760345543
-1.369914774330733,-0.5118933187411806,7.745367491091431,4.308831945987869,14.18900250819238,3.6927831034549334
-1.3750337075181447,-0.37000329365925677,7.78845581055131,4.345759777022418,13.708274590321272,3.428653436577262
-1.3787337404547373,-0.23292054775604404,7.831913408321535,4.380046311388191,13.137975979814241,3.028781633091437
-1.3810629459322978,-0.10154078795790161,7.8757138714354165,4.410334127719105,12.490053502823923,2.5147957389874205
-1.3820783538118768,0.02335974707033761,7.919817212712608,4.43548208510898,11.781355755362258,1.9136815335059165
-1.3818447563411735,0.1411733046239602,7.964172033563697,4.454618900444039,11.032218798999967,1.2558854548790614
-1.380433023294934,0.25149549261395987,8.008718222568138,4.4671777549928295,10.264700419559004,0.573022707475542
-1.3779180683687944,0.3541424968095499,8.053390000118066,4.472907982067585,9.500718688410974,-0.10446756598982952
-1.374376643400699,0.44914968369365965,8.098119079938742,4.471863306407687,8.760357865774333,-0.7493837155697918
-1.3698851465637625,0.536753262351403,8.14283771300282,4.464369469251989,8.060553043101224,-1.3392831069563318
-1.3645176139402484,0.6173587927824152,8.187481407695339,4.450976638182426,7.414273609167183,-1.8573331952737067
-1.3583440260124242,0.6915015288740871,8.231991174077162,4.432403306229689,6.830223693323215,-2.2924948571530326
-1.3514290107236833,0.7598037658073192,8.27631520713946,4.409478357658158,6.312992255588608,-2.6391470114555724
-1.3438309730656102,0.8229336883632054,8.32040999071604,4.383086887543603,5.863532821835042,-2.896322030769422
-1.335601636181978,0.8815690165815557,8.364240859591476,4.354123667235909,5.479836126763324,-3.0667346363364776
-1.3267859460161624,0.936367377849189,8.407782096263835,4.323456320872544,5.157670987282323,-3.155764182501584
-1.3174222722376705,0.9879440877220123,8.451016659472561,4.291898679047528,4.891297701714418,-3.1705079329533983
-1.3075428313604505,1.0368570647391564,8.493935646263036,4.2601935997179945,4.674092579855636,-3.1189762350315777
-1.297174260713059,1.0835979905377127,8.536537582260216,4.229003837367679,4.499053532919854,-3.009459705976408
-1.2863382808076818,1.1285885258669113,8.578827620633893,4.1989092403079145,4.35918066193184,-2.8500685361765354
-1.2750523955490127,1.1721803324862297,8.620816713036973,4.170408554946149,4.247741437262577,-2.6484254451112847
-1.2633305922241505,1.2146577468588555,8.662520798586435,4.143924300495036,4.158438359785234,-2.411484885753093
-1.251184014755562,1.256242130456708,8.703960041591385,4.119809451637505,4.085499814216912,-2.1454490401394075
-1.238621593450995,1.297097128598877,8.74515813610776,4.098354961236111,4.023714127866963,-1.8557533073878731
-1.2256506221650063,1.3373342698775468,8.786141685720121,4.079797428162232,3.9684242594837076,-1.5470982299076057
-1.2122772794662309,1.377018512472384,8.826939660001743,4.064326445863156,3.915497222778398,-1.2235096766994777
-1.198507094341507,1.416173484700168,8.867582924460375,4.052091349096161,3.8612790204329803,-0.8884137379088621
-1.1843453594945053,1.4547862749044977,8.908103837951337,4.043207211717072,3.802542911283262,-0.5447167556105169
-1.1697974967454603,1.4928117040173303,8.948535910068507,4.037760044160967,3.7364364101074385,-0.194884083262595
-1.154869379705287,1.5301760681184047,8.988913510510118,4.035811203328341,3.66043054165173,0.15898644329822614
-1.1395676190241029,1.566780373534922,9.029271622543401,4.037401067761323,3.5722734816662003,0.5150986210716865
-1.1238998152887536,1.602503108351584,9.069645633221015,4.04255205397204,3.469949732201659,0.8719006985581184
-1.1078747842052377,1.6372026056736004,9.110071153760735,4.051271060957621,3.351645306566616,1.2280372445994157
-1.0915027581485017,1.6707190587392666,9.150583864370311,4.063551433403616,3.2157189600788514,1.5823099418695439
-1.0747955675611092,1.7028762483400552,9.191219378704348,4.079374532822311,3.060679228591691,1.9336469152770488
-1.0577668050777087,1.7334830406259722,9.232013124032571,4.098711001975082,2.8851668745683114,2.2810800800866655
-1.040431974671449,1.7623347093716553,9.273000234052322,4.121521802775948,2.6879422500097205,2.6237299566625785
-1.0228086275777324,1.7892141318717525,9.31421545208008,4.147759102342574,2.4678770373943535,2.9607974117608262
-1.004916486259015,1.813892902245696,9.355693043103507,4.1773670764601825,2.2239498030942686,3.29156182488252
-0.986777557236558,1.8361324002766386,9.39746671386811,4.210282694709008,1.9552447781992741,3.6153852253982524
-0.9684162332337917,1.8556848480586314,9.4395695408152,4.2464365469629906,1.660953259973987,3.931721991244561
-0.9498593847532053,1.8722943806583714,9.48203390628483,4.285753766875436,1.340376997704766,4.24013373684384
-0.9311364409466216,1.8856981506354191,9.524891443953583,4.328155104243874,0.9929328867161336,4.54030904383348
-0.9122794594402674,1.8956274795025805,9.568172994996022,4.373558194682208,0.6181582433216491,4.8320877032409655
-0.8933231846452416,1.901809061935797,9.611908576942843,4.421879071714618,0.21571587265954426,5.1154891441869905
-0.8743050940258836,1.9039662206623924,9.65612736765999,4.473033963156488,-0.21460192657528349,5.390744726295131
-0.8552654318192597,1.9018202013966397,9.700857707291554,4.52694141041944,-0.6728713477187491,5.6583335768057905
-0.8362472298052933,1.8950914879194523,9.746127121395748,4.583524746187497,-1.1590380490560241,5.919021666701121
-0.8172963149260988,1.883501107428892,9.791962368857623,4.642714962854509,-1.672922174153905,6.173903852243865
-0.7984613038518098,1.866771885687353,9.838389518486169,4.704454001376948,-2.214228530527231,6.424448669797159
-0.7797935849949362,1.8446296003820806,9.88543405849994,4.768698488074919,-2.7825630708416544,6.6725457740736775
-0.7613472889911155,1.816803969673664,9.93312104338069,4.835423945815656,-3.377456831826355,6.920556064749238
-0.7431792492943788,1.7830294013554004,9.981475282838845,4.904629506463148,-3.998398470814096,7.171364764659337
-0.7253489552808249,1.7430454166472595,10.030521577903476,4.976343154109741,-4.644876495209254,7.42843800349943
-0.7079185011143523,1.696596651695167,10.080285009444573,5.050627534144735,-5.316432203191223,7.695883828892963
-0.6909525345974006,1.6434323296632547,10.13079128478602,5.127586372433664,-6.012724239901801,7.978519009479006
-0.6745182113007681,1.5833050872642367,10.182067148510358,5.207371562528454,-6.733605512154073,8.281943497684793
-0.6586851604281256,1.515969032142696,10.234140864135643,5.290190997505302,-7.479212973905822,8.612624947889246
-0.6435254701066987,1.4411769024036378,10.287042774110697,5.376317246984195,-8.250070447178025,8.97799616853281
-0.6291137010826623,1.3586761979318576,10.340805946580538,5.466097208669523,-9.047204085205395,9.386568693723085
-0.6155269391033437,1.2682041570798037,10.395466918667234,5.559962895606754,-9.872269138972335,9.84806555458996
-0.6028448975325457,1.1694814656900803,10.4510665476233,5.658443551152653,-10.727685028640812,10.37357538961872
-0.5911500828756449,1.0622046154036722,10.507650983134827,5.762179305048841,-11.616772759121956,10.975727499935255
-0.5805280367216081,0.9460368878124527,10.565272776185315,5.871936580048193,-12.543883403920864,11.668881977477778
-0.5710676678434836,0.820598053773244,10.623992141985797,5.988625399822971,-13.514496849277029,12.469318188754793
-0.5628616873057511,0.6854530852804737,10.683878395984026,6.113318581710519,-14.535252939571187,13.395384339568077
-0.5560071564529464,0.5401005558847618,10.745011581801132,6.2472724251062,-15.613846751976661,14.467532781979196
-0.5506061508940988,0.3839620883649952,10.807484306052194,6.391947752925992,-16.75866563849004,15.708096203418851
-0.5467665300104488,0.21637543198009476,10.871403783581453,6.549028714960181,-17.977949821039154,17.140534069451295
-0.5446027756906479,0.036595933769703215,10.936894070731055,6.720434055654693,-19.278089501660062,18.78765332308255
-0.5442368163529508,-0.1561849612468974,11.004098411287602,6.908310588885519,-20.66037759862895,20.66790899989145
-0.5457986659654198,-0.36278873723318694,11.073181517176458,7.114989678884434,-22.115037567377875,22.788203072242474
-0.5494265533377517,-0.5839391129069658,11.144331413965302,7.342871709606858,-23.610535044591924,25.130466937571207
-0.5552659444668213,-0.820044463352885,11.217760131061372,7.594176378982571,-25.074991551612463,27.6276145747257
-0.5634663891003502,-1.0707943788690095,11.293701894851198,7.870452524729828,-26.365170144024948,30.12244500967727
-0.5741743328890403,-1.334446080309259,11.372406420098496,8.171676974826601,-27.218304559845496,32.3024691822217
-0.5875187936921329,-1.606629125907714,11.454123189846761,8.494701666648819,-27.18737150426864,33.610352436316965
-0.60358508495121,-1.8785028409504003,11.53907020651325,8.830805191011988,-25.582023803524645,33.15848070611391
-0.622370113360714,-2.1343230789856467,11.62737825842337,9.162389998073127,-21.491771834266743,29.750053712448636
-0.6437133441505705,-2.349240797328314,11.719002158404102,9.459890535197614,-14.048146976234717,22.219533741536047
-0.6672057521238536,-2.489722267090661,11.813601063756078,9.682085872612975,-3.0636640396025374,10.282088327049328
-0.6921029747947602,-2.5203589074866866,11.910421922482207,9.784906755883467,10.211599082767073,-4.457404380989284
-0.7173065638696271,-2.418242916659016,12.008270990041042,9.740332712073574,23.13480224567811,-18.579485465086037
-0.7414889930362173,-2.186894894202235,12.105674317161778,9.554537857422714,33.0821289602279,-28.755014464479903
-0.7633579419782397,-1.8560736045999562,12.201219695736006,9.266987712777915,38.99324911410779,-33.778702614786226
-0.7819186780242393,-1.4661411134588782,12.293889572863785,8.929200686630052,41.449067222665484,-34.59674172447839
-0.796580089158828,-1.0516504412322234,12.383181579730085,8.583233269385268,41.67371833445853,-32.928043342778686
-0.8070965935711503,-0.6349132578876382,12.469013912423938,8.253952835957481,40.73193198362641,-30.206544456507515
-0.8134457261500266,-0.22759393805137407,12.551553440783513,7.951887391392406,39.29799623795547,-27.309719698565388
-0.8157216655305404,0.16538602432818067,12.631072314697438,7.678790194406752,37.72555683257839,-24.679292916453665
-0.8140678052872585,0.5426415926539646,12.707860216641505,7.431997265242216,36.1713586408286,-22.49887432207245
-0.8086413893607188,0.9043551790622506,12.782180189293927,7.207008522021491,34.68742656006401,-20.81983668756301
-0.7995978375700963,1.2512294446628907,12.854250274514142,6.998810155145861,33.275479202380446,-19.632458438238164
-0.7870855431234673,1.5839842366866952,12.9242383760656,6.80248557076348,31.915949533505938,-18.90176883707931
-0.7712457007566004,1.9031437320217546,12.992263231773235,6.613467882392687,30.58269140629352,-18.58414653476546
-0.7522142634363829,2.2089706460846896,13.058397910597161,6.427626417045032,29.25021101637271,-18.634270892726445
-0.730124556975536,2.501472756248417,13.122674174767612,6.241283708117768,27.897128611384293,-19.007531641039442
-0.7051098294130519,2.7804440423622596,13.18508701184879,6.051208391707374,26.5077562658165,-19.660472514282713
-0.6773053889894293,3.045521605020425,13.245599095765863,5.854603666564547,25.072714057231547,-20.550532087391737
-0.646850172939225,3.2962487455927403,13.30414513243151,5.649098345690629,23.58901986828187,-21.63568577407857
-0.6138876854832975,3.532138944275559,13.360636115888417,5.432741487949844,22.05985085827091,-22.87426316481793
-0.578566296040542,3.752737452858268,13.414963530767915,5.203998856301665,20.49406576537314,-24.22504660150921
-0.5410389215119593,3.9576781105119996,13.467003519330932,4.961748390286573,18.90553348748812,-25.647667140859554
-0.5014621404068393,4.1467334453868805,13.516621003233798,4.705271718877977,17.312302022723376,-27.10326328330809
-0.45999480595297054,4.319856465614114,13.563673720422578,4.434239086044896,15.735645320162174,-28.555337899567352
-0.4167962412968294,4.477212918815736,13.608016111283026,4.148685707049223,14.199034204032595,-29.970731785357046
-0.37202411210867203,4.619203260856062,13.649502968353518,3.848978389195653,12.727085770860613,-31.32062497600053
-0.3258320795001114,4.746474118564668,13.687992752245474,3.5357721394356476,11.344550411361787,-32.581477966680474
-0.2783673383144647,4.859919622678286,13.723350473639831,3.209957359768843,10.07539528743103,-33.735833383204806
-0.22976814208768181,4.960673575552597,13.75545004723752,2.872599025936795,8.94203713137033,-34.77291326356542
