th1 (rad),w1 (rad/s),th2 (rad),w2 (rad/s),a1 (rad/s^2),a2 (rad/s^2)
0.7780006583642335,2.966225200391576,3.251430114891097,1.3298774077539175,-11.631658845991856,-13.50721772495093
0.8076629103681493,2.8499086119316575,3.2647288889686363,1.1948052305044081,-11.650040907619674,-12.957392669150675
0.8361619964874659,2.7334082028554607,3.2766769412736805,1.0652313038129013,-11.642705866207518,-12.396382018709179
0.8634960785160205,2.6169811441933857,3.2873292543118096,0.9412674836258095,-11.613124875783935,-11.829088489944139
0.8896658899579544,2.5008498954355463,3.2967419291480677,0.8229765987263681,-11.564671755596478,-11.260183202185196
0.9146743889123098,2.3852031778795815,3.3049716951353316,0.7103747667045162,-11.500570515635221,-10.694040943759763
0.9385264206911056,2.270197472723229,3.3120754428023766,0.6034343572669185,-11.423852756191305,-10.134692274596821
0.9612283954183379,2.155958945161316,3.3181097863750457,0.5020874345209503,-11.33732529439184,-9.585792072727928
0.9827879848699511,2.0425856922173975,3.3231306607202553,0.406229513793671,-11.24354778107261,-9.050603310055218
1.003213841792125,1.9301502144066713,3.327192955858192,0.31572348069311884,-11.144819611520115,-8.531994260466904
1.0225153439361918,1.8187020182914702,3.330350190665123,0.2304035380884498,-11.04317510985812,-8.032446992775636
1.0407023641191064,1.7082702671928889,3.3326542260460075,0.15007906816069344,-10.940385772036155,-7.554074855616419
1.0577850667910353,1.5988664094725273,3.3341550167276144,0.07453831960452925,-10.837968270048343,-7.098646683829281
1.0737737308857607,1.4904867267720439,3.3349003999236597,0.0035518527662364435,-10.737196928499056,-6.667615603947141
1.088678598153481,1.3831147574870533,3.334935918451322,-0.06312430327323497,-10.63911946056227,-6.262150548970411
1.1025097457283515,1.2767235628814306,3.3343046754185894,-0.12574580876293906,-10.544574871351195,-5.883168872808769
1.1152769813571657,1.1712778141679188,3.33304721733096,-0.18457749749102675,-10.454212583053925,-5.531368752256958
1.126989759498845,1.0667356883373795,3.3312014423560496,-0.23989118501359633,-10.368511991896565,-5.207260356025639
1.1376571163822187,0.9630505684184139,3.328802530505914,-0.29196378857385274,-10.287801820001155,-4.911195030069193
1.1472876220664028,0.8601725502184023,3.3258828926201756,-0.3410757388745447,-10.212278767181141,-4.643391986329426
1.1558893475685867,0.758049762546591,3.32247213523143,-0.38750965873783894,-10.142025093578143,-4.4039621831843165
1.1634698451940526,0.6566295116108095,3.3185970386440515,-0.4315492805696821,-10.077024871331773,-4.192929249316851
1.1700361403101607,0.5558592628974918,3.3142815458383548,-0.4734785730628506,-10.017178731708654,-4.010247430039152
1.1755947329391356,0.45568747558040523,3.309546760107726,-0.5135810473632422,-9.96231700419883,-3.8558166296498366
1.1801516076949397,0.35606430553841695,3.304410949634094,-0.5521392136597405,-9.912211197793653,-3.729494689403452
1.1837122507503237,0.2569421935604804,3.2988895574974966,-0.5894341605537751,-9.866583814237533,-3.6311070826884424
1.1862816726859284,0.15827635541810509,3.292995215891959,-0.6257452313806595,-9.825116510917185,-3.5604542315282255
1.1878644362401094,0.06002519030893323,3.2867377635781523,-0.6613497736959417,-9.787456649602202,-3.517316655698141
1.1884646881431988,-0.03784937618708879,3.280124265841193,-0.6965229402529232,-9.753222278697793,-3.5014581612923665
1.188086194381328,-0.1353815989740667,3.273159036438664,-0.7315375218658469,-9.72200560299265,-3.512627262680045
1.1867323783915873,-0.2326016550039932,3.2658436612200052,-0.7666637944926473,-9.693374997789757,-3.550557013166839
1.1844063618415475,-0.32953540498189077,3.2581770232750786,-0.8021693646243158,-9.666875625235383,-3.6149633975881015
1.1811110077917286,-0.4262041612342446,3.2501553296288357,-0.8383189986001968,-9.642028710800654,-3.7055424163798465
1.1768489661793862,-0.5226244483422511,3.241772139642834,-0.8753744227639952,-9.61832953819292,-3.8219659669683415
1.1716227216959636,-0.6188077437241803,3.233018395415194,-0.9135940824336787,-9.595244222268324,-3.9638766059057478
1.1654346442587218,-0.7147601859468636,3.223882454590857,-0.9532328484927362,-9.572205322424201,-4.130881255191938
1.158287042399253,-0.8104822391711056,3.2143501261059297,-0.9945416610446556,-9.54860636399551,-4.322543899659431
1.150182220007542,-0.9059683028110608,3.204404709495483,-1.0377671000412498,-9.523795342803721,-4.538377310062919
1.1411225369794313,-1.001206256239098,3.1940270384950704,-1.083150873141879,-9.497067298582314,-4.777833819441097
1.1311104744170404,-1.096176929224921,3.1831955297636516,-1.13092921133629,-9.467656056852531,-5.040295179184576
1.1201487051247911,-1.1908534897934464,3.1718862376502885,-1.181332163128136,-9.434725256220634,-5.3250615267746255
1.1082401702268567,-1.2852007423556528,3.1600729160190073,-1.2345827783958823,-9.397358799238958,-5.63133951001305
1.0953881628033002,-1.3791743303480424,3.1477270882350483,-1.2908961734960127,-9.354550890081466,-5.958229633318323
1.0815964194998198,-1.472719839248857,3.1348181265000883,-1.3504784698291958,-9.305195851411835,-6.304712920773105
1.0668692211073312,-1.5657717977629753,3.1213133418017964,-1.4135255990369269,-9.248077945942955,-6.6696370283718105
1.0512115031297014,-1.6582525772224048,3.107178085811427,-1.4802219693206449,-9.181861465132426,-7.051701984427088
1.0346289773574773,-1.750071191873729,3.092375866118221,-1.5507389891649157,-9.105081387882278,-7.449445792187771
1.01712826543874,-1.841122005752552,3.0768684762265717,-1.6252334470867935,-9.016134955447711,-7.8612301919323
0.9987170453812144,-1.931283355307029,3.0606161417557036,-1.7038457490061165,-8.913274554187689,-8.285226950314202
0.9794042118281441,-2.020416100848906,3.0435776842656423,-1.7866980185092585,-8.79460234419807,-8.719405121354662
0.959200050819655,-2.108362124290887,3.0257107040805495,-1.873892069722805,-8.658067117824775,-9.161519804606824
0.9381164295767461,-2.1949427954691347,3.0069717833833214,-1.9655072677688732,-8.501463915786776,-9.609103009669218
0.9161670016220548,-2.2799574346270024,2.987316710705633,-2.061598297865565,-8.322436968011894,-10.059457320040211
0.8933674272757848,-2.3631818043071213,2.9667007277269772,-2.1621928710659675,-8.118486558786778,-10.509653130588227
0.8697356092327135,-2.4443666698949893,2.9450787990163176,-2.26728940237185,-7.8869804385176145,-10.956530308676504
0.8452919425337636,-2.5232364742801656,2.922405904992599,-2.376854705458615,-7.6251704138959955,-11.396705195975752
0.820059577790962,-2.5994881784191257,2.898637357938013,-2.4908217574183724,-7.330214740611389,-11.826583922687806
0.7940646960067707,-2.6727903258252397,2.873729140363829,-2.6090875966452507,-6.999206913290436,-12.242383044377352
0.7673367927485183,-2.742782394958144,2.8476382643973763,-2.7315114270890244,-6.629211390505638,-12.640158529372616
0.7399089687989369,-2.8090745088632003,2.820323150126486,-2.8579130123827508,-6.21730670174873,-13.015844116337465
0.7118182237103049,-2.8712475758806875,2.7917440200026586,-2.9880714535461252,-5.760636250034775,-13.365300020336491
0.683105747951498,-2.9288539383810352,2.7618633054671973,-3.12172445374949,-5.256466938469712,-13.684372882776225
0.6538172085676877,-2.9814186077657325,2.7306460609297023,-3.2585681825772523,-4.702255500176979,-13.968967724818402
0.6240030224900304,-3.0284411627675025,2.69806037910393,-3.3982578598254363,-4.095722085598218,-14.215132461287427
0.5937186108623553,-3.0693983836234846,2.6640778005056758,-3.5404091844383103,-3.434930246108992,-14.419155246263474
0.5630246270261204,-3.1037476860845747,2.628673708661293,-3.6846007369009453,-2.7183719362320016,-14.577674534547672
0.5319871501652746,-3.1309314054468946,2.5918277012922832,-3.830377482246422,-1.9450555307756447,-14.687801237974394
0.5006778361108057,-3.1503819607546513,2.553523926469819,-3.977255494626166,-1.1145941184127364,-14.747251719892827
0.46917401650325924,-3.1615279019387788,2.5137513715235573,-4.124728011825094,-0.22729050311113164,-14.754489603230196
0.4375587374838715,-3.16380080696989,2.4725040914053062,-4.2722729078573956,0.7157855483525734,-14.708873483111194
0.40592072941417257,-3.1566429514863645,2.4297813623267324,-4.419361642688507,1.712733174872544,-14.610806675204609
0.3743542998993089,-3.1395156197376393,2.3855877458998473,-4.565469709440554,2.7607755920568797,-14.461884169691878
0.34295914370193253,-3.1119078638170703,2.3399330488054417,-4.710088551137472,3.8562413916061664,-14.265031109312513
0.31184006506376183,-3.0733454499010087,2.292832163294067,-4.852738862230598,4.994579118782586,-14.024626516711274
0.2811066105647517,-3.0233996587131826,2.244304774671761,-4.99298512739771,6.170412149482657,-13.746605838884289
0.2508726139776199,-2.961695537218356,2.194374923397784,-5.130451185786553,7.377640185014259,-13.438536344690403
0.22125565860543633,-2.8879191353682137,2.1430704115399184,-5.264836549233457,8.609592322907924,-13.109660680843119
0.1923764672517542,-2.8018232121391344,2.0904220460475837,-5.395933156041888,9.859234637105962,-12.770906090793796
0.16435823513036285,-2.7032308657680746,2.0364627144871648,-5.523642216949826,11.119432601444142,-12.434859975058371
0.1373259264726821,-2.592036539753633,1.9812262923176664,-5.64799081670041,12.383265722815842,-12.115716553911874
0.11140556107514576,-2.468203882525475,1.9247463841506622,-5.769147982239528,13.644388732693963,-11.829204188134524
0.08672352224989102,-2.331759995198535,1.867054904328267,-5.887440024120873,14.897431016101786,-11.592508098807802
0.06340592229790568,-2.1827856850375174,1.8081805040870582,-6.003365105108951,16.138424052059964,-11.424208377517306
0.0415780654475305,-2.0214014445169175,1.7481468530359687,-6.117607188884125,17.36524583920044,-11.344257796012617
0.02136405100236133,-1.847748986124913,1.6869707811471275,-6.231049766844251,18.578071722327614,-11.37402745493536
0.0028865611411121976,-1.6619682689016368,1.624660283478685,-6.344790041393605,19.77982248959727,-11.536450096161447
-0.01373312154790417,-1.4641700440056642,1.5612123830647489,-6.46015454235522,20.976602241447623,-11.856289990131588
-0.028374821987960812,-1.254404021591188,1.4966108376411966,-6.5787174422565355,22.178118518838513,-12.360562979493574
-0.04091886220387269,-1.032622836402803,1.4308236632186313,-6.702323072051471,23.398071994665695,-13.079117015720522
-0.05124509056790072,-0.798642116456146,1.3638004324981166,-6.833114242208676,24.654486034285828,-14.0453550334238
-0.05923151173246218,-0.5520972561132877,1.2954692900760298,-6.973567792542914,25.96990498665081,-15.297022991319723
-0.06475248429359506,-0.29239820624677965,1.2257336121506006,-7.126538022456112,27.371299750580484,-16.876864949943606
-0.06767646635606286,-0.01868520874097479,1.1544682319260395,-7.295306671955548,28.889332126207382,-18.832700261569965
-0.06786331844347261,0.27020811252109905,1.081515165206484,-7.483633674571248,30.556251648354035,-21.215976836058665
-0.06516123731826162,0.5757706290046394,1.0066788284607715,-7.695793442931834,32.40094693159801,-24.076845106859626
-0.05940353102821523,0.8997800983206194,0.9297208940314532,-7.93656189400043,34.438203395693314,-27.451795507613525
-0.050405730045009034,1.2441621322775527,0.8503552750914489,-8.211079849076565,36.64643369652188,-31.33605623576828
-0.037964108722233506,1.6106264692427716,0.7682444766006833,-8.524440411434249,38.92322629524845,-35.626051373428076
-0.021857844029805788,1.9998587321952561,0.6830000724863408,-8.88070092516853,41.00076799215937,-40.00677475191093
-0.0018592567078532275,2.40986641211685,0.5941930632346555,-9.280768672687639,42.29786816118572,-43.750572173321835
0.022239407413315274,2.8328450937287073,0.5013853765077791,-9.718274394420858,41.70431030020649,-45.41792816416904
0.050567858350602346,3.249888196730772,0.4042026325635706,-10.172453676062549,37.405934770806866,-42.60310897054219
0.08306674031791006,3.6239475444388405,0.3024780958029451,-10.59848476576797,27.174386201431435,-32.300654069716416
0.11930621576229847,3.895691406453155,0.1964932481452654,-10.921491306465136,9.88038799175512,-12.934495457769952
0.15826312982683002,3.994495286370706,0.08727833508061403,-11.050836261042836,-11.967021257165838,12.214323675450919
0.19820808269053708,3.8748250737990477,-0.02323002752981433,-10.928693024288327,-31.987770359354656,34.731972729579
0.23695633342852757,3.5549473702055012,-0.13251695777269762,-10.581373296992536,-44.672019543767846,47.51607973981084
0.2725058071305826,3.1082271747678227,-0.23833069074262297,-10.106212499594427,-49.513432032651586,50.229302610703975
0.30358807887826084,2.613092854441307,-0.3393928157385673,-9.603919473487387,-49.31939200995475,46.8275756663027
0.3297190074226739,2.1198989343417596,-0.43543201047344116,-9.13564371682436,-46.88665037980857,41.06469037448036
0.3509179967660915,1.6510324305436739,-0.5267884476416848,-8.724996813079557,-43.84198115948923,35.035416081422376
0.36742832107152823,1.2126126189487816,-0.6140384157724803,-8.374642652265333,-40.898231483157026,29.60027534864134
0.37955444726101606,0.8036303041172113,-0.6977848422951336,-8.078639898778919,-38.291879669375064,25.00333184308882
0.38759075030218815,0.42071150742346064,-0.7785712412829228,-7.828606580348031,-36.05358784875706,21.2385541477442
0.39179786537642275,0.06017562893589001,-0.8568573070864031,-7.616221038870589,-34.137503685239295,18.218036833628346
0.39239962166578163,-0.28119940791650294,-0.9330195174751089,-7.434040670534306,-32.47623200269355,15.839433524989493
0.3895876275866166,-0.6059617279434384,-1.007359924180452,-7.275646335284411,-31.0022958011469,14.009420110142017
0.3835280103071822,-0.9159846859549075,-1.0801163875332962,-7.135552134182991,-29.655562939537557,12.649513476497143
0.37436816344763313,-1.212540315350283,-1.1514719088751262,-7.00905699941802,-28.38513248822669,11.695397201086234
0.3622427602941303,-1.49639164023255,-1.2215624788693065,-6.892103027407157,-27.149221300800463,11.094251053542278
0.34727884389180474,-1.7678838532405545,-1.290483509143378,-6.781160516871735,-25.914463458083024,10.801811807222775
0.3296000053593992,-2.0270284878213847,-1.3582951143120954,-6.673142398799507,-24.6551410315649,10.779775652847842
0.30932972048118534,-2.273579898137034,-1.4250265383000904,-6.565344642271028,-23.352496768621794,10.993716527345185
0.286593921499815,-2.5071048658232518,-1.4906799847228007,-6.455407476997576,-21.994135280535197,11.411532908145448
0.2615228728415825,-2.7270462186286037,-1.5552340594927765,-6.341292147916121,-20.573471083904344,12.002380074532386
0.23425241065529645,-2.932780929467647,-1.6186469809719377,-6.221268347170797,-19.089175009507684,12.736027342643885
0.20492460136062,-3.123672679562724,-1.6808596644436458,-6.093908073744358,-17.544581387479298,13.582573949870051
0.17368787456499274,-3.2991184934375166,-1.7417987451810895,-5.958082334245658,-15.947036062909461,14.512454228383913
0.14069668963061757,-3.4585888540666114,-1.801379568523546,-5.812957791961819,-14.307183930973949,15.496660773626957
0.10611080108995145,-3.601660693376351,-1.8595091464431643,-5.6579911842255495,-12.638210851665795,16.507114354047395
0.07009419415618795,-3.7280428018930087,-1.9160890582854198,-5.4929200406850756,-10.955066384358311,17.517112592502496
0.03281376613725786,-3.837593465736592,-1.9710182586922704,-5.317748914760051,-9.27369973700821,18.50179663382583
-0.00556216852010806,-3.930330463106674,-2.024195747839871,-5.132730948421792,-7.61034165569424,19.438585792150278
-0.0448654731511748,-4.006433879663616,-2.075523057324089,-4.938345090500289,-5.980860595625868,20.307543366606108
-0.08492981194781096,-4.066242485619875,-2.124906508229092,-4.735269656834228,-4.4002139533864755,21.09165073038491
-0.12559223680400972,-4.110244625153739,-2.172259204797434,-4.524353149530379,-2.8820061915822985,21.77697969185059
-0.1666946830555471,-4.139064687069562,-2.217502736292738,-4.306583352611873,-1.4381570050984192,22.352763623865666
-0.20808532992624273,-4.153446257120547,-2.2605685698188567,-4.083055716373217,-0.0786754843544645,22.8113752179896
-0.2496197924974482,-4.154233011964092,-2.301399126982589,-3.8549419641933205,1.1884688313346934,23.148222894496136
-0.2911621226170891,-4.142348323650745,-2.3399485466245222,-3.623459735248359,2.357389969321175,23.361579406537146
-0.3325856058535966,-4.118774423957533,-2.376183143977006,-3.3898439411829875,3.424257559076417,23.45235586834287
-0.3737733500931719,-4.084531848366769,-2.410081583388836,-3.155320382499559,4.387209551247177,23.42383323067389
-0.4146186685768396,-4.040659752854297,-2.4416347872138315,-2.92108205019282,5.24621733333902,23.281361885421358
-0.4550252661053826,-3.988197579520907,-2.4708456077157597,-2.6882684313386065,6.002913842844996,23.032039083762108
-0.49490724190059165,-3.9281684410924567,-2.4977282920291457,-2.4579480405009853,6.660394314465755,22.68437336121128
-0.5341889263115163,-3.861564497947799,-2.5223077724341554,-2.2311043068888723,7.222998589746099,22.247945077907822
-0.5728045712909943,-3.789334512050338,-2.544618815503044,-2.008624856109794,7.696083413566032,21.73307224362548
-0.6106979164114976,-3.7123736779146776,-2.564705064064142,-1.791294133673539,8.085792701219349,21.150490701619933
-0.6478216531906444,-3.631515750902484,-2.5826180054008776,-1.5797892266573397,8.398833223091316,20.511057246676845
-0.6841368106996693,-3.547527418671571,-2.598415897667451,-1.3746786541905713,8.642262400218709,19.825483221033373
-0.719612084886385,-3.461104794669384,-2.612162684209357,-1.1764238219802376,8.823293881576111,19.10410457330934
-0.7542231328330788,-3.3728718558536226,-2.6239269224291593,-0.9853827762471443,8.949125305652926,18.356692403539842
-0.787951851391615,-3.2833806027970933,-2.633780750191631,-0.8018158522117459,9.026791217424403,17.592305850371094
-0.820785657419586,-3.1931126906228493,-2.6417989087137483,-0.625892793708035,9.063042633670193,16.81918702794537
-0.8527167843258144,-3.1024822642861474,-2.6480578366508287,-0.45770092342858126,9.064253347000404,16.044695793267838
-0.8837416069686759,-3.0118397308161433,-2.6526348458851143,-0.2972539654959029,9.036351836622234,15.275280571525055
-0.9138600042768373,-2.921476212449921,-2.6556073855400735,-0.14450115978065234,8.984776684294538,14.516480371979057
-0.9430747664013366,-2.8316284456069756,-2.65705239713788,0.0006636439391382309,8.914452711928464,13.772952509606808
-0.9713910508574063,-2.742483918487691,-2.6570457606984887,0.13839316903520632,8.829784662551287,13.048520371726713
-0.9988158900422832,-2.654186071862178,-2.6556618290081366,0.26887837275247345,8.734665110839838,12.34623576094483
-1.025357750760905,-2.5668394207537797,-2.652973045280612,0.39234073036192174,8.632493367255131,11.668450812916818
-1.0510261449684428,-2.4805144870812286,-2.6490496379769928,0.5090252384910899,8.526202376894062,11.016895133161896
-1.075831289839255,-2.395252463312288,-2.643959385592082,0.6191941898227089,8.418290956310331,10.392754533185643
-1.099783814472378,-2.3110695537491845,-2.6377674436938547,0.7231217351545653,8.310859110093395,9.796748499521541
-1.1228945100098697,-2.2279609626482504,-2.630536226342309,0.8210892201497808,8.20564458409859,9.229204245408893
-1.1451741196363523,-2.1459045168072644,-2.6223253341408115,0.9133812626038698,8.104059214073851,8.690125837358185
-1.166633164804425,-2.064863924666526,-2.6131915215147727,1.0002825209774515,8.00722399690266,8.179257437573979
-1.1872818040510902,-1.9847916846974993,-2.6031886963049984,1.0820750953531912,7.916002135081507,7.696140150768664
-1.2071297208980651,-1.9056316633466843,-2.5923679453514663,1.159036496860878,7.831029578391333,7.24016231240937
-1.2261860375315319,-1.827321367562771,-2.5807775803828576,1.2314381199849715,7.7527428099387645,6.810603313232557
-1.2444592512071595,-1.7497939394633835,-2.568463199183008,1.299544153117297,7.68140380003077,6.40667123382499
-1.2619571906017932,-1.6729799014630757,-2.5554677576518348,1.363610865455547,7.6171221857888725,6.027534676591814
