th1 (rad),w1 (rad/s),th2 (rad),w2 (rad/s),a1 (rad/s^2),a2 (rad/s^2)
2.324752376382978,-3.1141569117096464,5.621715154078115,-0.4891453284904339,-6.733861006843188,0.8678937665547141
2.2936108072658814,-3.181495521778078,5.61682370079321,-0.4804663908248868,-6.76376610052063,1.2334108774145291
2.2617958520481007,-3.2491331827832846,5.612019036884961,-0.4681322820507415,-6.757844713278784,1.6698546851042777
2.2293045202202677,-3.3167116299160724,5.607337714064453,-0.4514337351996987,-6.715952858202093,2.178190863136582
2.196137403921107,-3.3838711584980934,5.602823376712456,-0.4296518265683329,-6.6387947788976875,2.758085776026424
2.162298692336126,-3.45025910628707,5.598526858446773,-0.40207096880806864,-6.528021854235119,3.4077854726537113
2.127796101273255,-3.5155393248294216,5.5945061487586925,-0.3679931140815315,-6.386310725366254,4.124040706613595
2.0926407080249607,-3.579402432083084,5.590826217617877,-0.32675270701539555,-6.217413483110791,4.902091112603775
2.05684668370413,-3.6415765669141917,5.5875586905477235,-0.2777317958893578,-6.026173189011162,5.735720525025609
2.020430918034988,-3.7018382988043035,5.58478137258883,-0.22037459063910173,-5.818499210512568,6.6173929263303135
1.9834125350469451,-3.7600232909094293,5.582577626682439,-0.15420066137579858,-5.6012989621924465,7.538474532855425
1.9458123021378508,-3.8160362805313537,5.581035620068681,-0.07881591604724433,-5.382365697118898,8.489542133386731
1.9076519393325373,-3.8698599375025426,5.5802474609082084,0.006079505286622974,-5.170225877460543,9.460771321316022
1.8689533399575118,-3.921562196277148,5.580308255961075,0.1006872184997832,-4.973954088866716,10.442391331222973
1.8297377179947403,-3.971301737165815,5.5813151281460724,0.20511113181201293,-4.802967995728297,11.42518669844496
1.790024700623082,-4.019331417123098,5.583366239464192,0.31936299879646257,-4.66681989155607,12.401020962602528
1.749831386451851,-4.065999616038659,5.586559869452157,0.44337320842248784,-4.5750043872294315,13.363355179203246
1.7091713902914645,-4.111749659910953,5.590993601536382,0.5770067602145204,-4.536803217990234,14.307734909322734
1.668053893692355,-4.157117692090855,5.596763669138527,0.7200841093077477,-4.561187801776074,15.232224025380281
1.6264827167714464,-4.202729570108616,5.603964510231604,0.8724063495615505,-4.656798155639024,16.13777195682386
1.5844554210703603,-4.2492975516650064,5.61268857372722,1.033784069129789,-4.832013558136259,17.028512220070795
1.5419624455537102,-4.297617687246369,5.623026414418518,1.204069191330497,-5.095126742004462,17.912003157302973
1.4989862686812465,-4.348568954666414,5.635067106331823,1.3831892229035267,-5.454630421099017,18.799435540715315
1.4555005791345823,-4.403115258877404,5.648898998560858,1.5711835783106798,-5.919623642848786,19.705845044471516
1.4114694265458083,-4.462311495305891,5.664610834343965,1.768242028755395,-6.500346731318539,20.650379935003727
1.3668463115927494,-4.5273149626190765,5.682293254631519,1.9747458281054322,-7.208858105612506,21.656685619139182
1.3215731619665587,-4.599403543675201,5.702040712912574,2.191312684296824,-8.059874300355627,22.753478303558882
1.2755791265298067,-4.680002286678758,5.723953839755542,2.4188474673324127,-9.07180576795688,23.97539034576528
1.2287791036630191,-4.770720344358327,5.748142314428867,2.6586013707900653,-10.268034082493674,25.364179262572847
1.1810719002194359,-4.873400685183263,5.774728328136767,2.912243163415794,-11.6784870816643,26.970396829135712
1.1323378933676032,-4.990185555999906,5.803850759770925,3.181947131707151,-13.341567458555375,28.85560184451874
1.0824360378076041,-5.12360123058546,5.835670231087996,3.4705031501523385,-15.306453390624991,31.095137391224295
1.0312000255017495,-5.276665764491709,5.87037526258952,3.7814545240645816,-17.63565928241093,33.78130053866447
0.9784333678568324,-5.4530223573158185,5.908189807830166,4.119267529451227,-20.407382630752043,37.02621636447284
0.9239031442836743,-5.657096183623339,5.949382483124678,4.489529693095955,-23.71624051330949,40.96242812569329
0.8673321824474409,-5.894258588756434,5.994277780055637,4.899153974352888,-27.668736101527465,45.736038186733076
0.8083895965598766,-6.170945949771708,6.043269319799166,5.356514356220219,-32.364369926122315,51.47962610659599
0.7466801370621595,-6.494589649032931,6.096834463361368,5.871310617286179,-37.84065928225677,58.23443330433584
0.6817342405718302,-6.872996241855499,6.15554756953423,6.453654950329537,-43.932522783178676,65.7523111706659
0.6130042781532752,-7.312321469687285,6.220084119037526,7.111178062036196,-49.94431157883166,73.03474152848274
0.5398810634564023,-7.811764585475602,6.291195899657888,7.8415254773210235,-53.980681358013555,77.3932128839167
0.4617634176016463,-8.351571399055738,6.369611154431098,8.61545760616019,-51.96164957614583,73.06732086345782
0.37824770361108895,-8.871187894817195,6.4557657304927,9.346130814794767,-37.59448981436493,51.19101187754932
0.289535824662917,-9.247132792960844,6.549227038640647,9.85804093357026,-7.307258341564368,6.737462226785246
0.19706449673330856,-9.320205376376489,6.64780744797635,9.925415555838113,29.50145980056614,-47.07002550090777
0.10386244296954367,-9.025190778370828,6.747061603534731,9.454715300829035,53.74822680287646,-83.3824557261983
0.013610535185835396,-8.487708510342063,6.841608756543021,8.620890743567053,58.82227045304295,-92.83469418159491
-0.07126654991758524,-7.899485805811634,6.927817663978692,7.692543801751103,52.82309485767155,-86.6981763114601
-0.1502614079757016,-7.371254857234918,7.004743101996203,6.825562038636503,43.837291118556124,-76.2736748288621
-0.22397395654805077,-6.932881946049357,7.072998722382568,6.062825290347882,35.33963496599971,-66.44183534338143
-0.2933027760085444,-6.57948559638936,7.133626975286047,5.398406936914068,28.200240672518834,-58.44746344556387
-0.359097631972438,-6.297483189664172,7.1876110446551875,4.813932302458429,22.39422895720377,-52.2776344181397
-0.4220724638690797,-6.0735409000921345,7.235750367679771,4.291155958277033,17.685035818272677,-47.6134191024413
-0.48280787287000104,-5.896690541909408,7.278661927262542,3.8150217672526194,13.833925413138706,-44.12263017505333
-0.5417747782890951,-5.75835128777802,7.316812144935068,3.373795465502086,10.64900415755441,-41.5289893664292
-0.5993582911668753,-5.651861246202476,7.350550099590089,2.958505571837794,7.98736811490641,-39.61578503770959
-0.6558769036289,-5.571987565053412,7.3801351553084675,2.5623477214606982,5.746260000102385,-38.214096736999444
-0.7115967792794342,-5.514524965052388,7.405758632523074,2.1802067540907037,3.8535034482643415,-37.19008590849554
-0.7667420289299581,-5.475989930569744,7.427560700063982,1.8083058950057485,2.2595886463473076,-36.434869345584886
-0.8215019282356556,-5.453394044106271,7.445643759014039,1.4439572015498996,0.9315251605389789,-35.857324855262014
-0.8760358686767183,-5.444078792500881,7.460083331029538,1.0853839529972795,-0.15194430518193452,-35.379403018902956
-0.9304766566017272,-5.4455982355527,7.470937170559511,0.73158992280825,-1.0041886056515241,-34.93342152905494
-0.9849326389572541,-5.455640121609216,7.478253069787593,0.38225570751770055,-1.6338935753338986,-34.46086991468854
-1.0394890401733463,-5.471979057362555,7.48207562686277,0.037647008370815194,-2.0477965202773123,-33.91230201914015
-1.094208830746972,-5.492457022565328,7.482452096946478,-0.3014760118205863,-2.2530016284486325,-33.24791413151409
-1.1491334009726253,-5.514987038849815,7.479437336828272,-0.6339551531357273,-2.258842493917496,-32.438411848128794
-1.2042832713611233,-5.53757546378899,7.473097785296915,-0.9583392716170152,-2.0782116802718775,-31.465783961684693
-1.2596590259990132,-5.558357580591709,7.463514392580745,-1.272997111233862,-1.7282751857804417,-30.32365014776919
-1.3152426018049304,-5.575640332449513,7.4507844214684065,-1.576233612711554,-1.2305297210000739,-29.0169426141109
-1.3709990051294254,-5.587945629659514,7.4350220853412905,-1.866403038852663,-0.6102313425064336,-27.56081487283143
-1.4268784614260206,-5.594047943084578,7.416358054952764,-2.142011187580977,0.10469472902663617,-25.9788214261895
-1.4828189408568664,-5.593000995794312,7.394937943076954,-2.4017994018428723,0.8850845715919706,-24.300548760426768
-1.5387489508148096,-5.5841501500783925,7.370919949058525,-2.64480488944714,1.702090832064375,-22.55897049490323
-1.5945904523155936,-5.5671292417577485,7.344471900164053,-2.8703945943961724,2.5286510818227668,-20.78783000706908
-1.650261744733171,-5.54184273093952,7.3157679542200915,-3.0782728944668634,3.3406984134966655,-19.019322368657402
-1.7056801720425663,-5.508435746804554,7.284985225275423,-3.2684661181534373,4.118007982792827,-17.282270153598102
-1.7607645295106118,-5.467255666976626,7.252300564093889,-3.4412888196894182,4.844643854330543,-15.600889585962209
-1.8154370861803781,-5.418809228433321,7.2178876758969945,-3.59729771554904,5.509031704392818,-13.994149323215376
-1.8696251784647113,-5.363718911389393,7.181914698741505,-3.737239208781194,6.103725086900576,-12.475651551679382
-1.9232623675786054,-5.3026816605203875,7.144542306653693,-3.8619957242979877,6.624953458250314,-11.053921801557156
-1.9762891841838093,-5.236432125937885,7.105922349410713,-3.972534942313559,7.072041849498352,-9.732979000137105
-2.028653505443188,-5.1657117074429015,7.066196999987578,-4.06986473231493,7.446780764794744,-8.513064269699123
-2.080310622517617,-5.0912438997949545,7.025498352664428,-4.1549953750119215,7.752806868283062,-7.39142734240274
-2.1312230615155663,-5.0137158311121235,6.9839483989143085,-4.228909648435949,7.995035495339145,-6.363095372675481
-2.1813602198266877,-4.933765476158732,6.941659302429949,-4.292540602162704,8.179168428198949,-5.4215745924750784
-2.230697874588275,-4.851973791876743,6.898733896408322,-4.346756348087455,8.311286437275529,-4.559457241953019
-2.2792176125070425,-4.7688609275039875,6.855266332927448,-4.392350920506985,8.397526230736643,-3.7689230757302163
-2.326906221782082,-4.684885665196621,6.811342823722378,-4.430040151264287,8.443835295309757,-3.0421364272107168
-2.373755078434048,-4.600447312243523,6.767042422209736,-4.4604615155363945,8.455794893719574,-2.37154701548911
-2.4197595515564836,-4.515889363306328,6.722437807054372,-4.484176985691286,8.438500370985372,-1.7501064143817233
-2.464918445189547,-4.431504359596474,6.677596037197459,-4.501678049835103,8.396488162132403,-1.1714133951750934
-2.5092334887855117,-4.3475394779751495,6.632579256699108,-4.513392183786854,8.33369989440496,-0.6298010848503285
-2.552708883565263,-4.2642024790311,6.58744533486124,-4.519690194635357,8.253475312463575,-0.12037773150320412
-2.595350908355574,-4.181667725906465,6.542248432914886,-4.52089397195039,8.158567147255402,0.36096867745113254
-2.637167585614639,-4.10008205443391,6.497039493195382,-4.5172842851758785,8.0511723354828,0.8175933248378613
-2.678168406158978,-4.019570331079082,6.451866650343623,-4.5091083519275,7.932975097071343,1.2521379015393923
-2.7183641094697686,-3.9402405801083686,6.406775566824348,-4.496586972912106,7.805198268516461,1.6665885938593223
-2.7577665152708524,-3.862188597423204,6.361809697095227,-4.479921086973513,7.668659980588531,2.0623440330829403
-2.7963884012450846,-3.7855019976173185,6.317010486225492,-4.459297646642684,7.523833288735158,2.4402893905380854
-2.8342434212212577,-3.710263664729967,6.272417509759065,-4.434894752737303,7.3709067511678334,2.800873481921721
-2.8713460578685575,-3.6365545972182884,6.228068562231692,-4.406886017918086,7.209844241888739,3.144186275115272
-2.9077116038407405,-3.564456154799401,6.183999702052511,-4.375444155166933,7.040442519358962,3.4700346178324284
-2.9433561653887343,-3.4940517296058116,6.1402452605008415,-4.340743808988609,6.862385275630389,3.778014353088311
-2.9782966826847925,-3.4254278768495077,6.096837822410955,-4.302963665457726,6.675292587528192,4.067577302512607
-3.0125509614532877,-3.3586749509742257,6.0538081857563775,-4.2622878924326,6.47876489484414,4.338091892292077
-3.04613771096303,-3.293887302025784,6.0111853068320515,-4.21890697350968,6.2724208467761775,4.588896487491839
-3.079076583983288,-3.2311630935580222,5.968996237096955,-4.173018008634761,6.055928586619539,4.819344792942381
-3.1113882149188683,-3.170603807691827,5.927266057010607,-4.1248245607053375,5.829030280313264,5.028842971202588
-3.1430942529957866,-3.1123135048886943,5.886017811403554,-4.0745361309933115,5.591559927688337,5.216878413705933
-3.1742173880446733,-3.056397905611811,5.845272450093621,-4.022367346856252,5.343454715279037,5.38304037045453
-3.2047813671007916,-3.0029633584590205,5.805048776625058,-3.968536943151707,5.08476036552097,5.527032885954624
-3.2348110006853816,-2.9521157548038106,5.765363407193541,-3.9132666142921604,4.81563109975178,5.6486806946879025
-3.2643321582334197,-2.903959443806293,5.726230741050619,-3.8567798073452813,4.536324954907621,5.747928890655233
-3.2933717526714825,-2.858596194257217,5.687662942977166,-3.799300518438729,4.247195272605715,5.824837297839391
-3.321957714614055,-2.81612424153116,5.649669937792779,-3.741052145460335,3.9486792141767126,5.8795705306594295
-3.3501189570293666,-2.776637449389393,5.612259416338175,-3.6822564401537408,3.6412841489835466,5.912384747812287
-3.3778853315232604,-2.7402246078995574,5.575436851936638,-3.623132592675618,3.3255727213567745,5.9236120743529135
-3.405287577602256,-2.7069688806859897,5.539205526009882,-3.5638964719320887,3.0021473307638433,5.913643602627445
-3.432357266409116,-2.6769474073783512,5.503566561290561,-3.5047600359058144,2.6716346684154417,5.882911791216827
-3.4591267404829,-2.650231060694197,5.468518960931503,-3.445930917993646,2.334670849561141,5.831872971306414
-3.485629051089842,-2.6268843521985854,5.434059651751566,-3.387612188280582,1.9918875719020506,5.760990550525613
-3.511897894611828,-2.606965476479565,5.400183529868761,-3.330002282775326,1.6438996235236256,5.670719383095886
-3.537967549376624,-2.590526480244329,5.366883507041007,-3.2732950889443675,1.291293963901295,5.5614916586207075
-3.563872814179067,-2.577613540605316,5.334150556151563,-3.2176801723581603,0.9346205127965114,5.433704555116095
-3.5896489495851203,-2.568267335477351,5.301973754427982,-3.1633431268069994,0.5743847067653953,5.287709808472545
-3.6153316229398937,-2.562523488409697,5.270340323159911,-3.110466028722274,0.21104182277901876,5.123805272587126
-3.6409568578239906,-2.5604130701819066,5.239235662872688,-3.0592279759964027,-0.15500697675538824,4.94222848279036
-3.6665609885258097,-2.5619631399494605,5.208643383112724,-3.009805691168499,-0.523416954196503,4.743152189774005
-3.6921806199253044,-2.5671973094914255,5.178545326201039,-2.962374169270759,-0.8939005566707031,4.526681801082104
-3.717852593020219,-2.5761363150581325,5.148921584508332,-2.9171073512599377,-1.2662267271744743,4.292854650892881
-3.7436139561708,-2.5887985823298774,5.119750510995733,-2.874178804751009,-1.640218865517495,4.041641014484877
-3.769501941994099,-2.605200770985052,5.091008722948223,-2.8337623946061603,-2.0157515280069593,3.772946789462282
-3.7955539497039497,-2.6253582862651217,5.062671099002161,-2.7960329267115376,-2.3927459396200708,3.4866177794681232
-3.8218075325666008,-2.6492857456613224,5.034710769735046,-2.7611667489168563,-2.771164373803894,3.1824455357135206
-3.848300390023214,-2.6769973893993613,5.007099102245878,-2.729342293559721,-3.151003434705478,2.860174735223928
-3.8750703639172075,-2.708507423746416,4.979805679310281,-2.7007405462074816,-3.5322862561618478,2.5195121003275234
-3.9021554381546717,-2.7438302863080346,4.952798273848206,-2.6755454252042066,-3.915053612646604,2.160136889694951
-3.929593741017752,-2.7829808224345007,4.926042819596164,-2.653944056307257,-4.299353920976635,1.7817130152711251
-3.957423549242097,-2.825974361644267,4.899503379033091,-2.636126926154546,-4.68523209929051,1.383902859732505
-3.9856832928585395,-2.872826682637172,4.873142109771546,-2.622287897557221,-5.072717242986007,0.9663828835361132
-4.014411559684911,-2.923553855067032,4.846919230795974,-2.61262406872186,-5.4618090773531165,0.5288611168907479
-4.043647098235581,-2.978171945840563,4.820792990108756,-2.6073354575529524,-5.852463155026738,0.07109662754323175
-4.073428817693987,-3.0366965773908303,4.794719635533227,-2.60662449127752,-6.244574784633309,-0.4070789626316245
-4.103795783467896,-3.0991423252371635,4.768653390620451,-2.6106952809038364,-6.637961706671414,-0.9057378735838855
-4.134787206720268,-3.1655219423038776,4.742546437811413,-2.6197526596396754,-7.032345575257645,-1.4248304907683287
-4.166442426143306,-3.235845398056454,4.716348911215016,-2.6340009645473588,-7.427332361242533,-1.9641577080934367
-4.198800880123871,-3.310118721668879,4.690008901569542,-2.653642541628293,-7.8223918643843895,-2.52334148326873
-4.23190206734056,-3.388342640312723,4.6634724761532595,-2.6788759564609803,-8.216836610237378,-3.101793927544821
-4.265785493743687,-3.470511006415097,4.636683716588649,-2.7098938957364287,-8.609800510799028,-3.6986854089064654
-4.300490603807838,-3.5566090115230873,4.6095847776312855,-2.7468807498254932,-9.00021778523078,-4.312912332274816
-4.336056693923069,-3.646611189375395,4.582115970133031,-2.7900098731482412,-9.386802765033899,-4.943065469085257
-4.372522805816823,-3.740479217025734,4.554215871401548,-2.839440527839094,-9.768031341951959,-5.587399935575793
-4.40992759798708,-3.8381595304452536,4.5258214661231575,-2.8953145271948517,-10.1421249494011,-6.243808154399435
-4.448309193291532,-3.9395807799392646,4.496868320851209,-2.957752608738846,-10.507038089844654,-6.9097973637006485
-4.487705001090925,-4.044651160837711,4.46729079476382,-3.0268505823758525,-10.860450519339553,-7.582473443068726
-4.528151512699302,-4.153255666031106,4.437022288940062,-3.1026753168065397,-11.19976526260214,-8.25853298406502
-4.569684069359613,-4.265253318657128,4.405995535771996,-3.18526064664719,-11.522113642224092,-8.934265618178854
-4.6123366025461845,-4.380474455079368,4.374142929305525,-3.2746033028289787,-11.824368448880723,-9.605568599140634
-4.656141347096979,-4.498718139568176,4.341396896277235,-3.3706589888203853,-12.103166241817444,-10.267975492147363
-4.70112852849266,-4.619749801986351,4.3076903063890315,-3.473338743741859,-12.354939540408129,-10.916700526185855
-4.747326026512524,-4.743299197390432,4.272956918951613,-3.5825057490037175,-12.575959343696939,-11.54669970133284
-4.794759018486428,-4.869058790827402,4.237131861461576,-3.697972746017046,-12.762387998902383,-12.152749106361362
-4.843449606394702,-4.996682670816425,4.200152134001405,-3.8195002370806597,-12.91034194461676,-12.729540104143073
-4.893416433102867,-5.125786090262593,4.161957131630598,-3.9467956381220906,-13.015963302712537,-13.271790111979477
-4.944674294005493,-5.255945723289718,4.1224891752493775,-4.079513539241885,-13.075498717112383,-13.774366688414426
-4.99723375123839,-5.386700710460842,4.081694039856958,-4.217257206126029,-13.085383277313717,-14.23242160134552
-5.051100758342999,-5.517554543233979,4.039521467795698,-4.359581422139485,-13.042326863299879,-14.641530570679247
-5.1062763037753385,-5.647977811866978,3.995925653574303,-4.505996727846277,-12.943399848424553,-14.997833533731452
-5.162756081894008,-5.777411810351223,3.95086568629584,-4.6559750631835914,-12.786114833510151,-15.298169650398158
-5.22053019999752,-5.905272958686325,3.904305935664004,-4.808956759687573,-12.568500982335497,-15.540200911282675
-5.279582929584383,-6.03095796850968,3.856216368067128,-4.964358768800399,-12.289167593724123,-15.722518176184339
-5.33989250926948,-6.153849644446922,3.806572780379124,-5.1215839505622425,-11.947353769019085,-15.844723764240902
-5.401431005713949,-6.273323182137113,3.7553569408735017,-5.280031188204651,-11.542961390046326,-15.907485320667407
-5.46416423753532,-6.3887527960375765,3.7025566289914553,-5.439106041411325,-11.076569073650859,-15.912556549196552
-5.528051765495696,-6.499518486774085,3.648165568577342,-5.5982316069032905,-10.549425270364381,-15.862761452054142
