th1 (rad),w1 (rad/s),th2 (rad),w2 (rad/s)
1.5587705479994691,2.449610118513769,4.130208883564587,-2.9138366413336687
1.5832666491846068,2.3655772063741436,4.101070517151251,-2.9351098743033637
1.6069224212483482,2.2857546429126585,4.071719418408217,-2.9523349271479007
1.6297799676774747,2.2099472048210274,4.042196069136739,-2.965589022108074
1.6518794397256849,2.1378815756156984,4.012540178915658,-2.9750663023873702
1.6732582554818418,2.0692385295062605,3.9827895158917843,-2.9810304012566844
1.6939506407769045,2.003677166573784,3.9529792118792173,-2.9837789525755434
1.7139874124426424,1.9408522065524945,3.9231414223534617,-2.9836184052994255
1.7333959345081673,1.880425645532899,3.8933052383004676,-2.9808471294750873
1.7522001909634963,1.8220740790251113,3.8634967670057168,-2.9757448491581964
1.7704209317537474,1.7654928423775664,3.8337393185141346,-2.968566693905499
1.788075860177523,1.7103979108130312,3.80405365157508,-2.959540487535342
1.8051798392856533,1.656526290745264,3.7744582466997265,-2.9488662138548998
1.821745102193106,1.6036354479797026,3.7449695845611775,-2.9367168780504596
1.837781456672903,1.5515021662109438,3.715602415780673,-2.9232402079367032
1.8532964783350123,1.4999211109992716,3.686370013701306,-2.9085608127044194
1.8682956894450051,1.4487032859709572,3.657284405574262,-2.8927825453457787
1.8827827223047147,1.397674503782052,3.628356580120804,-2.875990907357745
1.8967594673425352,1.3466739489323083,3.5995966710472267,-2.8582553990046433
1.9102262068318583,1.2955528780556578,3.5710141170571803,-2.839631762485195
1.9231817356124148,1.2441734819956898,3.5426177994323282,-2.8201640944672013
1.9356234704323716,1.1924079198211488,3.514416158487656,-2.7998868229416862
1.9475475496305832,1.1401375257166169,3.486417290258239,-2.778826554392274
1.9589489248877494,1.087252183765344,3.4586290247143165,-2.7570038031674886
1.969821446725403,1.033649861854613,3.4310589866826415,-2.734434617303491
1.980157945343949,0.9792362934569373,3.4037146405096066,-2.711132115001489
1.9899503082785184,0.9239247943092734,3.376603319359592,-2.687107944299635
1.999189556221611,0.8676361996559557,3.3497322399165954,-2.662373675738505
2.0078659182181706,0.8102989065117128,3.3231085031592102,-2.636942134392448
2.0159689072832876,0.7518490042211617,3.2967390818152857,-2.610828673822109
2.0234873973254994,0.6922304754082028,3.270630795077065,-2.5840523905411317
2.0304097020795813,0.6313954482578576,3.2447902711716536,-2.5566372737054173
2.03672365656216,0.5693044800423044,3.2192238984345996,-2.5286132811447715
2.042416701362583,0.5059268510194563,3.193937765623152,-2.5000173297856767
2.0474759698727776,0.44124084744861825,3.168937592325295,-2.4708941861821554
2.0518883783472637,0.3752340126443587,3.1442286504634738,-2.441297241491801
2.055640718473707,0.30790334587774365,3.119815678048556,-2.4112891549919375
2.0587197519324847,0.239255430654603,3.0957027864986366,-2.3809423512642356
2.0611123062390306,0.16930647652463465,3.0718933629859944,-2.350339358550725
2.062805371004277,0.0980822621059028,3.0483899694004872,-2.319572979472149
2.063786193625336,0.025617971368326053,3.025194239605766,-2.2887462901634805
2.0640423733390194,-0.04804207975831948,3.002306776704131,-2.2579724696679526
2.0635619525414364,-0.12284482394999745,2.9797270520074517,-2.22737446777813
2.0623335043019364,-0.19872892219159968,2.9574533073296703,-2.1970845259708995
2.0603462150800205,-0.2756253293094144,2.9354824620699613,-2.1672435721513064
2.057589961786926,-0.3534579273831183,2.913810026348448,-2.1380005150905412
2.054055382513095,-0.43214420541758897,2.892430021197543,-2.109511468254464
2.049733940458919,-0.5115959612313953,2.8713349065149982,-2.081938934805452
2.044617980846605,-0.5917200005199326,2.8505155171669436,-2.0554509856947054
2.0387007808414057,-0.6724188085370388,2.8299610073099966,-2.0302204608822962
2.031976592756035,-0.7535911717447081,2.8096588027011737,-2.0064242199396167
2.024440681038588,-0.8351327299236072,2.7895945605017776,-1.9842424628769553
2.016089353739352,-0.9169364433377584,2.769752135873008,-1.9638581354034892
2.0069199893059744,-0.9988929642586803,2.750113554518973,-1.9454564254635636
1.9969310596633876,-1.0808909071007418,2.7306589902643377,-1.9292243503369035
1.98612215059238,-1.1628170162299283,2.7113667467609686,-1.9153504263662995
1.9744939804300807,-1.2445562348510895,2.6922132424973055,-1.9040244069546848
1.9620484180815698,-1.3259916819870816,2.673172998427759,-1.895437069236172
1.948788501261699,-1.407004547251436,2.654218627735397,-1.8897800260441662
1.9347184557891846,-1.4874739147874507,2.6353208274749553,-1.887245537626705
1.91984371664131,-1.5672765283920185,2.6164483720986884,-1.8880262970306652
1.90417095135739,-1.6462865095336272,2.5975681091283818,-1.8923151641229223
1.8877080862620537,-1.7243750388506143,2.5786449574871524,-1.9003048256802266
1.8704643358735475,-1.8014100099712198,2.55964190923035,-1.9121873626349546
1.8524502357738353,-1.8772556623619052,2.5405200356040005,-1.928153710139473
1.8336776791502163,-1.9517721976367892,2.5212384985026057,-1.9483930013113213
1.8141599571738485,-2.02481538160678,2.5017545684894924,-1.9730917910439223
1.7939118033577808,-2.096236132561554,2.482023650579053,-2.0024331618257825
1.7729494420321652,-2.1658800950891393,2.461999318960795,-2.036595718847409
1.7512906410812739,-2.233587198342227,2.441633361772321,-2.0757524865742782
1.7289547690978515,-2.2991911982116364,2.4208758369065784,-2.1200697232631245
1.7059628571157353,-2.3625192044718117,2.3996751396739473,-2.16970567349182
1.6823376650710171,-2.423391196675795,2.377978082939029,-2.2248092816114613
1.658103753104259,-2.481619536401906,2.3557299901229145,-2.2855188911146613
1.63328755774024,-2.537008488349196,2.332874801211768,-2.351960956285254
1.607917472856748,-2.589353768663772,2.3093551916489155,-2.4242487932065377
1.5820239351701102,-2.6384421456491287,2.28511270371685,-2.5024813973011417
1.555639513713619,-2.6840511255593213,2.2600878897438386,-2.5867423540525785
1.5287990024580258,-2.7259487643975766,2.234220466203313,-2.677098868326742
1.50153951481405,-2.7638936554891993,2.2074494775200457,-2.773600935548284
1.473900578259158,-2.7976351520837808,2.1797134681645627,-2.8762806744850136
1.4459242267383203,-2.8269138944968897,2.1509506614197127,-2.985151835905014
1.4176550877933514,-2.8514627226146896,2.1210991430606625,-3.1002094929418367
1.3891404605672044,-2.8710080674657665,2.090097048131244,-3.221429906298273
1.3604303798925468,-2.885271930819139,2.0578827490682614,-3.3487705386344753
1.3315776605843554,-2.8939745805942105,2.0243950436819165,-3.4821701652403605
1.3026379147784133,-2.8968381139730464,1.989573342029513,-3.621548989296844
1.2736695336386827,-2.8935910718326996,1.9533578521365444,-3.7668086157373555
1.2447336229203558,-2.8839743305837744,1.915689765979171,-3.9178316629571355
1.215893879614518,-2.86774855470536,1.8765114493495996,-4.074480690238942
1.1872163940674645,-2.8447035700749885,1.83576664244721,-4.236595983404953
1.1587693583667147,-2.8146701201038042,1.7934006826131605,-4.403991563487438
1.1306226571656766,-2.777534599079036,1.7493607669782862,-4.5764485545254
1.1028473111748862,-2.733257523525154,1.7035962814330323,-4.753704760044838
1.0755147359396346,-2.681896701037623,1.656059233832584,-4.935438952328603
1.0486957689292584,-2.623636273289174,1.606704844309298,-5.121247987118622
1.0224594061963668,-2.5588230087874884,1.5554923644381118,-5.310614460398879
0.9968711761084919,-2.4880113221596676,1.502386219834123,-5.502862318347935
0.9719910628868952,-2.412018349598433,1.4473575966506436,-5.697097803853563
0.9478708793909109,-2.3319897535717584,1.3903866186121079,-5.892133707186091
0.9245509818551932,-2.249475351632823,1.331465281540247,-6.086396625025409
0.902056228338865,-2.166510586647696,1.2706013152899929,-6.2778205971034025
0.880391122472388,-2.0856946184623624,1.2078231093189589,-6.4637370027554235
0.8595341762877644,-2.0102479832914764,1.1431857392914047,-6.6407806378541805
0.8394316964548496,-1.9440228263016373,1.0767779329128628,-6.804844977068339
0.8199914681918332,-1.8914292502467245,1.0087294831421794,-6.9511325678349465
0.801077175689366,-1.857238254399218,0.9392181574638299,-7.074351719483223
0.7825047931453738,-1.8462341815825545,0.8684746402689976,-7.1690962473083495
0.7640424513295483,-1.8627259220500465,0.7967836777959141,-7.230399912974423
0.7454151921090478,-1.909984857259457,0.7244796786661698,-7.254383073057642
0.7263153435364532,-1.989737572823045,0.6519358479355933,-7.238833251410452
0.7064179678082227,-2.1018643431834763,0.5795475154214889,-7.1835336709833
0.685399324376388,-2.2444091266046478,0.5077121787116559,-7.090213905134344
0.6629552331103414,-2.4139025476206113,0.4368100396603124,-6.962130968716388
0.6388162076341353,-2.605890887544367,0.3671887299731485,-6.803424777199567
0.6127572987586916,-2.815512143831349,0.2991544822011528,-6.618451154264486
0.5846021773203781,-3.037983246110712,0.23296997065850794,-6.411257993493163
0.554222344859271,-3.2689299641266096,0.1688573907235763,-6.185278905799335
0.5215330452180049,-3.504557484445041,0.10700460166558295,-5.943233470533739
0.4864874703735545,-3.7416983663096115,0.04757226696024556,-5.687176895490418
0.4490704867104584,-3.9777841792475184,-0.009299501994658621,-5.418633840664866
0.40929264491798323,-4.210779151299041,-0.06348584040130728,-5.13876477107396
0.3671848534049928,-4.439100493678957,-0.1148734881120469,-4.848532712255473
0.32279384846820325,-4.661537654103164,-0.16335881523460163,-4.548855067304398
0.2761784719271716,-4.877173955223285,-0.20884736590764563,-4.240736698659381
0.22740673237493875,-5.08530877553615,-0.25125473289423944,-3.925387356767544
0.17655364461957723,-5.285375703873119,-0.2905086064619149,-3.6043301514831088
0.12369988758084605,-5.476851103182001,-0.326551907976746,-3.2795092179919014
0.06893137654902604,-5.659147841749168,-0.359347000156665,-2.9534044470340204
0.012339898131534355,-5.831490723796893,-0.3888810446270052,-2.6291587550265954
-0.04597500910643458,-5.992774104514865,-0.41517263217727113,-2.310717669240158
-0.10590275015158324,-6.141409587925724,-0.4382798088696727,-2.002970083477096
-0.16731684603084046,-6.2751840546682,-0.4583095097044437,-1.7118608351495563
-0.23006868657752247,-6.39116607692682,-0.4754281180559392,-1.444419750340638
-0.2939803473467907,-6.4857191496283795,-0.4898723155593456,-1.2086226426136137
-0.35883753884307446,-6.5546931381848745,-0.5019585419854817,-1.0129824382663277
-0.4243844702249232,-6.593851825753976,-0.512088366368145,-0.8657912681971329
-0.490322988482463,-6.599532621969749,-0.5207462790501164,-0.7740286183941038
-0.5563183147021604,-6.569421680565506,-0.5284865652340575,-0.7421194531410124
-0.6220125315078155,-6.503209167191798,-0.5359077597654676,-0.7709019630475183
-0.6870446231797336,-6.402856635639034,-0.5436167793959428,-0.8572120013677239
-0.7510731895361239,-6.272330215693589,-0.55218889940962,-0.9943082543528134
-0.8137964916930598,-6.116884390630278,-0.5621319819531482,-1.1730142668220362
-0.8749653355993625,-5.942169722854295,-0.5738621246213685,-1.383164798699089
-0.9343870328279055,-5.753461214908218,-0.5876937726083594,-1.614899525372289
-0.9919216449769876,-5.555179412981286,-0.6038427678620824,-1.8595266656262448
-1.0474734391068006,-5.350718502490206,-0.6224380345183448,-2.1099156915628496
-1.1009806241317026,-5.142497328322963,-0.6435371914339733,-2.360531923937443
-1.1524055974149323,-4.932127221623783,-0.6671425106733477,-2.6072670229895776
-1.20172686963117,-4.720613849551255,-0.6932151809032435,-2.847190668222504
-1.2489330081266825,-4.508544926740845,-0.7216870875854685,-3.078299997341318
-1.294018457394091,-4.296243401614382,-0.7524700875588817,-3.2993024779576627
-1.3369808914102348,-4.083882481187116,-0.7854631123384583,-3.509442227169707
-1.377819716222106,-3.871566825732208,-0.8205575346101555,-3.708366904409898
-1.416535384479428,-3.6593869101773757,-0.8576412036542544,-3.8960274327601745
-1.4531292535812017,-3.4474536010652024,-0.8966014779818562,-4.072602080518928
-1.4876037895918537,-3.235919037911139,-0.9373274987870455,-4.238437452565298
-1.519962979970965,-3.0249887338934642,-0.9797118733126985,-4.3940004392705685
-1.5502128673098998,-2.814928749780143,-1.0236518777054042,-4.539836588398533
-1.5783621548077011,-2.606070934161288,-1.0690502435893896,-4.676531514633632
-1.6044228641493141,-2.3988185403257605,-1.115815558735726,-4.804672836288653
-1.6284110495525717,-2.193653955345461,-1.1638622870986124,-4.924810811007075
-1.6503475891060262,-1.9911497143374726,-1.2131103952086832,-5.037416462445335
-1.670259086249401,-1.7919833050205909,-1.2634845598331366,-5.142836717085271
-1.6881789192996068,-1.5969553556956426,-1.3149129270039892,-5.241247109232516
-1.7041484728565632,-1.4070094945431488,-1.3673253980963143,-5.332604187527256
-1.7182185678019948,-1.2232503515098687,-1.4206514399715868,-5.416602057135886
-1.7304510713170935,-1.0469538537756824,-1.4748174605429456,-5.492640543714572
-1.7409206098548504,-0.879561440964827,-1.5297438659800913,-5.559815903366915
-1.7497162242644988,-0.7226479006408859,-1.5853420250137604,-5.61694777466307
-1.7569427032709077,-0.5778526466015104,-1.641511502760391,-5.662656228210375
-1.7627212297369228,-0.44676832464180327,-1.6981380650424949,-5.695497726205575
-1.767188912983341,-0.3307900895835438,-1.7550930423045505,-5.71415650006615
-1.7704968138791763,-0.23094315624565648,-1.812234607305212,-5.7176689577379225
-1.772806245441633,-0.14772107525050637,-1.8694112968825913,-5.705638788186471
-1.7742834561941379,-0.08097510118531964,-1.926467684764456,-5.678389503937046
-1.775093207205991,-0.02988884012397553,-1.9832515798038264,-5.637008919605137
-1.7753920956072309,0.006949000799591182,-2.0396216689998776,-5.5832680433087605
-1.775322605599235,0.03138949013641655,-2.0954543494329654,-5.51943440820038
-1.775008710697871,0.0455242159830307,-2.1506486935149693,-5.448029365188368
-1.7745534685380406,0.0514868134103654,-2.205128987166853,-5.371587337910519
-1.774038600403937,0.05129070880993298,-2.258844860545958,-5.292462265895552
-1.7735256933158376,0.04672055825374826,-2.3117694832049134,-5.21270279606777
-1.7730584877333002,0.039277685816064764,-2.363896511165591,-5.13399550138333
-1.7726657108751396,0.030168966728776454,-2.4152364661794246,-5.057661660125539
-1.7723640212078517,0.020324779230497712,-2.46581308278068,-4.984688670243661
-1.7721607734155467,0.01043273551923817,-2.5156599694831163,-4.915779030519082
-1.7720564460603543,0.0009772197027097564,-2.564817759788307,-4.851404413039283
-1.7720466738633271,-0.007721628318855079,-2.6133318039186997,-4.791857154758129
-1.7721238901465157,-0.015472898398384827,-2.661250375466281,-4.737295309013497
-1.7722786191304996,-0.022185251486653824,-2.708623328556416,-4.687779950305996
-1.772500471645366,-0.027842783033601996,-2.755501128059476,-4.643304902397166
-1.772778899475702,-0.0324859411455747,-2.8019341770834476,-4.6038197774519665
-1.7731037588871579,-0.03619677222589976,-2.8479723748579673,-4.569247462476
-1.773465726609417,-0.03908771959727803,-2.893664849482727,-4.539497181445782
-1.7738566038053898,-0.041293259890681305,-2.939059821297185,-4.514474134055354
-1.7742695364042966,-0.04296376426696326,-2.9842045626377383,-4.494086544089107
-1.7746991740469662,-0.04426108222196133,-3.029145428078629,-4.478250783258629
-1.7751417848691857,-0.045355448030273915,-3.0739279359112155,-4.466895088304624
-1.7755953393494885,-0.046423397152012505,-3.1185968867942617,-4.459962266104971
-1.7760595733210087,-0.04764645080477469,-3.1631965094553114,-4.457411683005542
-1.7765360378290564,-0.049210382503389105,-3.2077706262853667,-4.459220757439733
-1.7770281416540903,-0.05130492271846722,-3.252362833859764,-4.465386115120044
-1.777541190881275,-0.05412378903949774,-3.2970166950109645,-4.47592451971569
-1.77808242877167,-0.05786495122392225,-3.3417759402081213,-4.490873655424238
-1.7786610782839094,-0.06273105472984605,-3.3866846767623637,-4.510292808132442
-1.7792883888312079,-0.06892993376641211,-3.431787604843688,-4.534263466290598
-1.779977688168872,-0.0766751460909199,-3.477130239506594,-4.562889838843939
-1.7807444396297811,-0.08618645682115593,-3.5227591378950334,-4.596299263379716
-1.7816063041979926,-0.0976901870493026,-3.5687221305288306,-4.634642450875802
-1.7825832060684856,-0.11141932421127204,-3.6150685550375887,-4.678093481755172
-1.7836973993105985,-0.12761326366662018,-3.6618494898551406,-4.726849428760768
-1.7849735319472646,-0.14651701294893918,-3.709117984142748,-4.781129432456097
-1.786438702076754,-0.16837963929519834,-3.756929278467309,-4.841172991401843
-1.788122498469706,-0.19345167449728418,-3.8053410083813275,-4.9072371471688445
-1.7900570152146789,-0.22198110561852852,-3.854413379853016,-4.979592139747884
-1.7922768262708642,-0.2542074724313838,-3.9042093012504946,-5.058514976852468
-1.794818900995178,-0.29035345997333184,-3.954794451019019,-5.144280196876403
-1.7977224355949113,-0.3306132167714769,-4.006237252987783,-5.237146907657048
-1.801028567762626,-0.3751364497095671,-4.058608722064354,-5.3373409541457795
-1.8047799322597218,-0.42400715697633506,-4.111982131605812,-5.4450308192042085
-1.809020003829485,-0.4772156870180323,-4.166432439797854,-5.560295621112786
-1.8137921606996654,-0.5346227032147584,-4.222035396008981,-5.683083394707911
-1.819138387731813,-0.5959136763567878,-4.27886622995606,-5.8131578294640125
-1.8250975244953809,-0.660542856701267,-4.3369978082507,-5.950031949808821
-1.8317029530623936,-0.72766649801377,-4.396498127748789,-6.09288810699277
-1.8389796180425313,-0.7960666939146058,-4.4574270088187165,-6.240485449220192
-1.8469402849816774,-0.8640698694226562,-4.519831863310919,-6.391059162206371
-1.8555809836759039,-0.9294680443808006,-4.583742454932983,-6.542220620724027
-1.864875664119712,-0.9894565300194462,-4.649164661140223,-6.690874316806907
-1.8747702294199065,-1.0406082685048708,-4.716073404308292,-6.833175543814486
-1.8851763121049552,-1.0789111107108056,-4.784405159746437,-6.964560622127112
-1.8959654232120633,-1.099897073468387,-4.854050765967708,-7.07988552080698
-1.906964393946747,-1.0988878016278072,-4.9248496211757775,-7.173703919210769
-1.9179532719630252,-1.0713636984912045,-4.9965866603678855,-7.240696599252758
-1.9286669089479374,-1.013433713682001,-5.068993626360413,-7.276228126496511
-1.9388012460847575,-0.9223432035086154,-5.141755907625378,-7.276959264742566
-1.9480246781198436,-0.7969218221438479,-5.214525500272804,-7.241400111857245
-1.955993896341282,-0.6378608513745923,-5.286939501391376,-7.170272091626696
-1.9623725048550278,-0.44773431181359735,-5.358642222307643,-7.066574440804994
-1.9668498479731638,-0.23073916821109014,-5.429307966715693,-6.935321457418876
-1.9691572396552746,0.007794571071026685,-5.498661181289882,-6.783005428380502
-1.9690792939445643,0.26201460165848045,-5.566491235573687,-6.616909754973978
-1.9664591479279794,0.5261503238848542,-5.632660333123427,-6.444420087919265
-1.9611976446891308,0.7950061714685,-5.697104534002619,-6.272455759066334
-1.9532475829744458,1.064288840456057,-5.759829091593283,-6.107089098703359
-1.9426046945698852,1.3307631820162906,-5.8208999825803165,-5.953362942038382
-1.9292970627497223,1.5922669902598239,-5.8804336120007,-5.815275698326816
-1.913374392847124,1.847630671861423,-5.938586368983968,-5.695884710827035
-1.8948980861285099,2.096547549441656,-5.995545216092238,-5.597478289751325
-1.8739326106340932,2.3394313956406516,-6.051519998989751,-5.521776917483908
-1.8505382966776867,2.577286044257395,-6.1067377681645905,-5.4701376402300905
-1.8247654362351127,2.811601497485333,-6.1614391445668915,-5.44374816568429
-1.7966494212602593,3.044283462875206,-6.215876626223734,-5.443806838794398
-1.7662065866315073,3.2776188321841477,-6.270314694611678,-5.471691295723958
-1.733430398309666,3.51427766566016,-6.325031607568918,-5.529122789593305
-1.6982876216530642,3.7573519476658457,-6.380322835464851,-5.618335635364678
-1.6607141021764058,4.010431821416619,-6.436506191818498,-5.742262277992382
