th1 (rad),w1 (rad/s),th2 (rad),w2 (rad/s),a1 (rad/s^2),a2 (rad/s^2)
4.472870229027211,1.522310874994495,4.094211169349015,0.598501937266398,9.405992103125454,0.1033844293758043
4.488093337777156,1.6163707960257494,4.10019618872168,0.5995357815601561,9.3029620976626,0.3966256215696956
4.504257045737413,1.7094004170023753,4.106191546537281,0.603502037775853,9.187094855418321,0.7177518133621064
4.5213510499074365,1.8012713655565586,4.11222656691504,0.6106795559094741,9.057591247572276,1.0680403724879912
4.539363763563002,1.8918472780322815,4.118333362474135,0.621359959634354,8.913775663804627,1.4484950540966905
4.558282236343325,1.9809850346703277,4.124546962070479,0.6358449101753209,8.755113523206868,1.8597950006278767
4.578092086690028,2.0685361699023965,4.1309054111722325,0.6544428601815996,8.581220597463636,2.3022538007113567
4.598777448389052,2.1543483758770328,4.137449839774049,0.6774653981887131,8.391862847278897,2.7757908145650805
4.6203209321478225,2.238267004349822,4.144224493755936,0.7052233063343639,8.186945998292837,3.2799163091195007
4.642703602191321,2.3201364643327502,4.15127672681928,0.7380224694255589,7.966494744227763,3.8137310794164616
4.665904966834648,2.399801411775028,4.158656951513535,0.7761597802197235,7.730622204943716,4.375940244827991
4.689902980952398,2.477107633824465,4.166418549315733,0.8199191826680035,7.479491010643126,4.964879906988326
4.714674057290643,2.5519025439308964,4.174617741142413,0.8695679817378867,7.213268049739045,5.578554459720455
4.740193082729952,2.6240352244282867,4.1833134209597915,0.9253535263350913,6.932075433038335,6.214681660370869
4.766433434974235,2.69335597875867,4.192566956223143,0.9875003429388,6.63594053650532,6.8707421910780555
4.793366994761822,2.7597153841237234,4.202441959652531,1.0562077648495805,6.324748062977727,7.544030401467211
4.82096414860306,2.8229628647535008,4.213004037301027,1.1316480688642525,5.998196915635571,8.231703228322429
4.849193777250595,2.8829448339098565,4.2243205179896695,1.2139651011474768,5.655764337691973,8.9308248859874
4.878023225589693,2.9395024772867764,4.236460169001144,1.3032733500073508,5.296679299709045,9.638405732536052
4.907418250362561,2.9924692702838667,4.249492902501218,1.3996574073327113,4.919906574157316,10.35143464091114
4.937342943065399,3.04166833602544,4.263489476574545,1.5031717537418228,4.524142390714255,11.066905137946218
4.967759626425654,3.0869097599325825,4.278521194111963,1.613840805121285,4.107822068398703,11.781836424914577
4.99862872402498,3.1279879806165694,4.294659602163176,1.7316591693704306,3.669139607611786,12.493291088418243
5.029908603831145,3.1646793766926873,4.31197619385688,1.856592080254613,3.2060789128567673,13.198391801146801
5.061555397598072,3.196740165821255,4.330542114659426,1.988575998266081,2.716456104400648,13.894339571714859
5.093522799256284,3.2239047268652614,4.3504278746420875,2.1275193939832295,2.1979722511100386,14.578436122084613
5.125761846524937,3.2458844493763617,4.37170306858192,2.2733037552040756,1.6482757981249687,15.248112750862054
5.158220691018701,3.2623672073576113,4.394436106133961,2.425784882712696,1.065033954553492,15.900967584613735
5.190844363092277,3.273017546903146,4.418693954961088,2.5847945585588334,0.4460123395845594,16.534812426690838
5.223574538561309,3.2774776702989916,4.444541900546676,2.750142682825742,-0.21083773202782297,17.147729473014753
5.256349315264298,3.2753692929787133,4.472043327374934,2.9216199775558898,-0.9072847816643217,17.7381369501268
5.289103008194085,3.26629644516207,4.501259527150492,3.0990013470571576,-1.6447156690890814,18.30486119363199
5.321765972645706,3.249849288471179,4.532249540621064,3.2820499589934773,-2.4240266755784536,18.84721074540148
5.354264465530418,3.2256090217153948,4.5650700402109985,3.4705220664474923,-3.24550584781294,19.365045582486573
5.386520555747572,3.193153963237265,4.599775260875473,3.664172522272358,-4.108703755802233,19.85883141358175
5.418452095379945,3.152066925679243,4.636416986098197,3.8627608364081754,-5.0122874092149186,20.329664812392043
5.449972764636738,3.1019440515870937,4.675044594462279,4.066057484532096,-5.953868402244891,20.779249392860844
5.480992205152608,3.042405367564645,4.7157051693076,4.273849978460705,-6.929790916924672,21.20979568073837
5.5114162588282545,2.9731074583953983,4.758443669092207,4.485947935268088,-7.934857376619542,21.623806982083618
5.5411473334122086,2.893758884629203,4.803303148444888,4.702186005088924,-8.961958556306168,22.023699321058427
5.5700849222585,2.8041392990661413,4.850325008495777,4.922422998299508,-10.001560050236177,22.41118415705915
5.598126315249162,2.7041236985637798,4.899549238478772,5.1465348398701,-11.04097765038185,22.78631694382402
5.6251675522347995,2.5937139220599614,4.9510145868774735,5.37439800930834,-12.063350822206198,23.146082448731807
5.651104691455399,2.4730804138378994,5.0047585669705565,5.605858833795658,-13.04619897062859,23.482351788212164
5.675835495593778,2.3426184241316137,5.060817155308513,5.8406823516777795,-13.959428071118461,23.779016064564043
5.699261679835094,2.203024143420429,5.119223978825291,6.07847251232342,-14.762665552550754,24.00810207399996
5.721291921269298,2.0553974878949215,5.180008703948525,6.31855353306342,-15.401880773895718,24.124760562592805
5.741845896148248,1.9013786801559642,5.243194239279159,6.559801138689348,-15.805474691012677,24.06128999293165
5.760859682949808,1.7433239332458375,5.308792250666053,6.800414038618665,-15.880521063285482,23.720989810483548
5.778292922282266,1.5845187226129827,5.376796391052239,7.0376239367235005,-15.510771658472885,22.973850197412208
5.794138109508396,1.4294110060282539,5.447172630419474,7.2673624386976226,-14.559485860742077,21.658020067910673
5.808432219568679,1.2838161474208332,5.51984625480645,7.483942639376729,-12.881818287771456,19.59329904738406
5.821270381042887,1.1549979645431185,5.594685681200217,7.67987562985057,-10.352152586838812,16.613950598167737
5.832820360688318,1.0514764386747304,5.671484437498723,7.846015135832247,-6.908727523749079,12.624363707392169
5.843335125075066,0.9823891634372396,5.749944588857045,7.9722587729061685,-2.608053056315262,7.6682896469627355
5.853159016709438,0.956308632874087,5.829667176586106,8.048941669375797,2.334086103666378,1.981720963221531
5.862722103038179,0.9796494939107507,5.910156593279864,8.068758879008012,7.548465335361452,-4.01399350672659
5.872518597977286,1.0551341472643652,5.990844182069944,8.028618943940746,12.584626289448462,-9.803747231505564
5.883069939449929,1.1809804101588497,6.071130371509351,7.930581471625691,17.027750184066246,-14.925677370052254
5.894879743551518,1.351257911999512,6.150436186225608,7.781324697925168,20.601892722765868,-19.097234280054856
5.908392322671513,1.5572768392271708,6.22824943320486,7.59035235512462,23.209056606704532,-22.256330658793868
5.923965091063784,1.7893674052942161,6.3041529567561065,7.367789048536681,24.900023717727073,-24.51568882897936
5.941858765116726,2.0383676424714867,6.377830847241474,7.122632160246887,25.811518572246527,-26.077848477790248
5.9622424415414415,2.2964828281939518,6.449057168843942,6.861853675468985,26.107178862409874,-27.15950979627839
5.985207269823381,2.5575546168180505,6.517675705598632,6.590258577506201,25.94021490316496,-27.946624498412504
6.010782815991562,2.8169567658497003,6.583578291373693,6.310792332522076,25.437491167510053,-28.57794055112766
6.038952383650059,3.071331677524801,6.6466862146989145,6.025012927010799,24.69736374234669,-29.145899710399018
6.069665700425308,3.318305314948268,6.706936343969023,5.733553929906809,23.793871984970057,-29.704943786054365
6.10284875357479,3.5562440347979685,6.764271883268091,5.436504492046265,22.782624072382557,-30.281297972308582
6.13841119392277,3.784070275521794,6.818636928188553,5.133691512323179,21.706154449637015,-30.881599825140697
6.176251896677988,4.0011318200181645,6.869973843311785,4.824875514071772,20.598001213552912,-31.499618010006078
6.216263214878169,4.207111832153694,6.918222598452503,4.509879333971711,19.48544932015214,-32.12112414821677
6.258334333199706,4.4019663253552155,6.96332139179222,4.188668092489544,18.3911398355819,-32.72722717079247
6.302353996453258,4.585877723711034,7.005208072717115,3.861395820781619,17.3337899846478,-33.29647577866717
6.348212773690368,4.7592156235575125,7.043822030924931,3.5284310629949474,16.328230168734844,-33.805948240235274
6.395804929925943,4.922497925244861,7.07910634155488,3.1903715805925947,15.384900639281913,-34.231452291988646
6.445029909178392,5.07634693163768,7.111010057360806,2.8480570576727082,14.508886065844745,-34.5468779663948
6.495793378494769,5.221435792296127,7.139490627937533,2.5025882780087603,13.698511911229296,-34.722693027005555
6.5480077364177305,5.35842091140842,7.164516510717621,2.1553613477387046,12.943493352898896,-34.723555673997005
6.601591945531815,5.487855844937409,7.186070124195008,1.8081257909987345,12.2226357766949,-34.50506751087306
6.656470503981189,5.6100822027043575,7.204151382104995,1.463075115890004,11.501174124911651,-34.00985296247305
6.7125713260082325,5.725093943953474,7.218782133263895,1.1229765862652734,10.728071132689804,-33.16351782673656
6.769822265447767,5.832374655280372,7.230011899126548,0.7913414079979078,9.834060061359962,-31.87173031155999
6.8281460120005715,5.930715255893972,7.237925313206527,0.4726241048823078,8.731989984283242,-30.0207795349796
6.887453164559512,6.018035155736804,7.2426515542553505,0.1724163095325118,7.322046229229383,-27.48539129072425
6.94763351611688,6.0912556180290975,7.2443757173506755,-0.10243760337473073,5.505206802876247,-24.148627810392252
7.008546072297171,6.14630768605786,7.243351341316928,-0.34392388147865327,3.2076472711424713,-19.9376167860821
7.070009149157749,6.178384158769284,7.239912102502141,-0.5433000493394743,0.41483416060969713,-14.87294878033082
7.131792990745442,6.182532500375381,7.234479102008747,-0.6920295371427825,-2.7942979545463618,-9.117411481770818
7.1936183157491955,6.1545895208299175,7.227558806637319,-0.7832036519604907,-6.23214540773149,-2.9961000252001933
7.255164210957495,6.092268066752602,7.219726770117714,-0.8131646522124927,-9.626108195790922,3.0410437392192717
7.31608689162502,5.996006984794693,7.211595123595589,-0.7827542148202999,-12.68384961199617,8.517985061100761
7.376046961472968,5.869168488674732,7.203767581447386,-0.6975743642092923,-15.17416316350177,13.054400962919686
7.4347386463597145,5.717426857039714,7.196791837805294,-0.5670303545800954,-16.982630259163,16.450393397964625
7.491912914930111,5.547600554448085,7.1911215342594925,-0.4025264206004492,-18.117776360493632,18.697779873057616
7.547388920474592,5.366422790843148,7.187096270053488,-0.21554862186987303,-18.676141115544997,19.9294998001267
7.6010531483830235,5.1796613796876985,7.18494078383479,-0.016253623868606043,-18.79367427809735,20.347115392618907
7.6528497621799,4.991724636906725,7.184778247596104,0.18721753005758304,-18.606454092394085,20.160693310252924
7.7027670085489675,4.805660095982784,7.18665042289668,0.3888244631601123,-18.228969236464884,19.554054451155345
7.750823609508795,4.623370403618135,7.190538667528281,0.5843650076716658,-17.747256902668383,18.672135720098055
7.797057313544976,4.4458978345914515,7.196382317604997,0.7710863648726463,-17.220702713015964,17.621702972998133
7.8415162918908905,4.273690807461292,7.204093181253723,0.9473033946026276,-16.687324516633055,16.477834273157526
7.884253199965503,4.106817562294961,7.21356621519975,1.112081737334203,-16.16952359808064,15.291613690161796
7.925321375588452,3.945122326314155,7.224687032573092,1.2649978742358208,-15.678997385611863,14.096955578843504
7.964772598851594,3.788332352458036,7.23733701131545,1.4059674300242557,-15.220479081369398,12.915931207651383
8.002655922376174,3.6361275616443423,7.251396685615693,1.5351267421007695,-14.794399660326302,11.762641551153541
8.039017197992617,3.488183565041079,7.266747953036701,1.652753157612305,-14.398701154476482,10.645911885616885
8.073899033643029,3.3441965534963143,7.283275484612823,1.7592122764684737,-14.030032020230742,9.57111238106429
8.107340999177993,3.2038962332940066,7.3008676073775085,1.8549234002791166,-13.684512694987701,8.541362669281122
8.139379961510933,3.0670511063441297,7.3194168413803,1.9403370269719278,-13.358210573863191,7.5583162088109885
8.170050472574374,2.933469000605498,7.338820211650019,2.015920189060038,-13.047422220714914,6.6226645664768755
8.199385162580429,2.802994778398349,7.35897941354062,2.0821468347248064,-12.748829481502247,5.734458402866911
8.227415110364412,2.675506483583326,7.379800881887868,2.1394914187534755,-12.459574142268721,4.893310490805913
8.254170175200246,2.550910742160639,7.4011957960754025,2.1884245236615345,-12.177280733383514,4.0985241206942025
8.279679282621853,2.429137934826804,7.4230800413120175,2.2294097648684765,-11.900047018029783,3.3491752463798954
8.303970661970121,2.310137464646506,7.445374138960703,2.2629015173322755,-11.626415044091612,2.6441666370664167
8.327072036616586,2.1938733142055895,7.468003154134025,2.2893431837029397,-11.355331252775548,1.9822655888496659
8.349010769758642,2.080320001677834,7.490896585971054,2.3091658395914365,-11.086101246616332,1.3621323264397158
8.369813969775421,1.9694589892116705,7.513988244366969,2.3227871628558336,-10.8183429041814,0.7823433420948078
8.389508559667538,1.8612755601698565,7.537216115995527,2.330610596276782,-10.551940247810549,0.24141206569088822
8.408121315269236,1.755756157691751,7.560522221958295,2.3330247169336906,-10.286999603166313,-0.26219190642070034
8.425678876846154,1.652886161660088,7.583852469127632,2.3304027978694837,-10.023808993271949,-0.7300245069831656
8.442207738462756,1.5526480717273685,7.607156497106327,2.323102552799652,-9.762801294321847,-1.1636497124780407
8.457734219180029,1.45502005878415,7.630387522634323,2.3114660556748716,-9.50452138789945,-1.5646229887114584
8.47228441976787,1.3599748449051554,7.653502183191072,2.295819825787757,-9.249597337154839,-1.9344758732335636
8.485884168216922,1.267478871533607,7.676460381448949,2.2764750670554217,-8.99871546885077,-2.2747019191015445
8.498558956932257,1.1774917168450991,7.699225132119504,2.2537280478644064,-8.752599142985284,-2.5867441996611413
8.510333874100708,1.0899657254152464,7.721762412598148,2.2278606058677948,-8.511990925976766,-2.871984526796743
8.52123353135486,1.0048458161554787,7.744041018656826,2.1991407605998274,-8.27763784430759,-3.131734479059536
8.531281989516414,0.9220694377124028,7.766032426262824,2.167823415809232,-8.050279377169197,-3.36722827965113
8.540502683893537,0.8415666439407108,7.787710660420917,2.134151133012721,-7.830637844389222,-3.579617512332796
8.548918350332945,0.7632602654968186,7.809052171751044,2.098354957889393,-7.619410855943035,-3.769967618518739
8.556550952987914,0.6870661569373883,7.830035721329938,2.060655281704206,-7.417265508450605,-3.9392560821481792
8.563421614557289,0.6128935018528823,7.8506422741469795,2.0212627208827243,-7.22483403948647,-4.088372180538169
8.569550549575817,0.5406451614580176,7.8708549013558065,1.9803789990773426,-7.042710679915584,-4.218118158904539
8.574957001190397,0.4702180546588617,7.89065869134658,1.9381978174882972,-6.871449475763996,-4.32921167298104
8.579659181736986,0.4015035599012217,7.910040669521464,1.8949057007584869,-6.711562882584706,-4.422289337501416
8.583674217335998,0.3343879310753747,7.928989726529048,1.8506828073834727,-6.563520965391286,-4.4979112176444085
8.587018096646752,0.26875272142146184,7.947496554602883,1.8057036952070287,-6.427751064753085,-4.556566105416027
8.589705623860967,0.204475210773931,7.965553591554953,1.7601380341528683,-6.304637813549171,-4.598677433044345
8.591750375968706,0.14142883263843928,7.983154971896482,1.7141512598224249,-6.194523408345522,-4.6246096906177945
8.59316466429509,0.07948359855498405,8.000296484494706,1.667905162916247,-6.097708053770486,-4.634675235349264
8.59395950028064,0.01850651801727919,8.01697553612387,1.6215584105627543,-6.014450507180758,-4.629141405008322
8.594144565460812,-0.04163798705452839,8.033191120229496,1.575266996512671,-5.944968654067067,-4.608237878285652
8.593728185590267,-0.10108767359519907,8.048943790194622,1.5291846177298145,-5.889440041936425,-4.572164260183016
8.592717308854315,-0.15998207401456332,8.06423563637192,1.4834629751279844,-5.848002291859739,-4.521097910968966
8.59111748811417,-0.2184620969331607,8.0790702661232,1.4382519960182947,-5.820753292649306,-4.455202082747461
8.58893286714484,-0.27666962985965377,8.093452786083382,1.3936999751908201,-5.807751063011329,-4.374634478093565
8.586166170846242,-0.33474714048976706,8.107389785835291,1.3499536304098845,-5.8090131423997,-4.2795564002194055
8.582818699441345,-0.39283727191376405,8.12088932213939,1.3071580664076905,-5.824515342213271,-4.1701427232431625
8.578890326722208,-0.45108242533589676,8.133960902803468,1.2654566391752589,-5.854189656143278,-4.046592973546255
8.57437950246885,-0.5096243218973295,8.14661546919522,1.2249907094397963,-5.897921092875711,-3.909143877668035
8.569283259249875,-0.5686035328260867,8.158865376289619,1.185899270663116,-5.9555431573904665,-3.7580837967597054
8.563597223921615,-0.6281589643999913,8.17072436899625,1.148318432695519,-6.026831670825821,-3.593769529318172
8.557315634277614,-0.6884272811082495,8.182207553323206,1.1123807374023371,-6.111496586320595,-3.4166460182282634
8.550431361466533,-0.7495422469714554,8.19333136069723,1.0782142772200545,-6.209171433854505,-3.2272695383460337
8.542935938996818,-0.8116339613100005,8.20411350346943,1.045941581836594,-6.319400017327232,-3.026334957192612
8.534819599383718,-0.8748279614832729,8.214572919287795,1.0156782322646678,-6.441620001090833,-2.8147076399628155
8.526071319768885,-0.9392441614941812,8.22472970161044,0.9875311558650397,-6.575143073509306,-2.593460491918537
8.516678878153943,-1.0049955922292744,8.23460501316909,0.9615965509458543,-6.719131478738575,-2.3639164709345493
8.50662892223165,-1.07218690701666,8.24422097867855,0.9379573862365088,-6.872570886482155,-2.127696627952764
8.495907053161483,-1.1409126158814815,8.253600552540915,0.9166804199569811,-7.034239849445555,-1.8867733037542944
8.484497927002668,-1.211255014375937,8.262767356740484,0.8978126869194382,-7.202676509702072,-1.6435274817452774
8.472385376858908,-1.2832817794729579,8.27174548360968,0.8813774121019854,-7.376143788887551,-1.4008084224670838
8.459552559064178,-1.3570432173618334,8.2805592577307,0.8673693278773146,-7.552595058266474,-1.1619925484122529
8.44598212689056,-1.432569167944498,8.289232951009472,0.8557494023931921,-7.729643242682637,-0.9310370927010663
8.431656435211114,-1.5098656003713244,8.297790445033405,0.8464390314661814,-7.904537445324622,-0.7125223033843955
8.4165577792074,-1.5889109748245707,8.306254835348067,0.8393138084323374,-8.07415241386936,-0.5116741143772582
8.400668669459154,-1.6696524989632642,8.31464797343239,0.8341970672885648,-8.234997351661349,-0.3343573749750543
8.383972144469523,-1.7520024724798777,8.322989944105275,0.8308534935388142,-8.383251458771445,-0.1870283401983624
8.366452119744723,-1.8358349870675923,8.331298479040663,0.8289832101368306,-8.514833804491557,-0.07663469532286168
8.348093769874048,-1.920983325112508,8.339588311142032,0.828216863183602,-8.62551422845888,-0.010452591364939071
8.328883936622923,-2.0072384673970967,8.347870479773869,0.8281123372699526,-8.71106945699401,0.004146278125423016
8.308811551948951,-2.094349161967037,8.356151603146568,0.8281538000512069,-8.767484121423664,-0.040001950958021
8.28786806032928,-2.1820240031812737,8.36443314114708,0.8277537805416266,-8.791189792325216,-0.14948855672343786
8.266047820297468,-2.269935901104526,8.372710678952496,0.8262588949743922,-8.779326943178631,-0.3299271697744095
8.243348461286422,-2.357729170536312,8.38097326790224,0.8229596232766481,-8.730006086208249,-0.5855423170284006
8.219771169581058,-2.4450292313983946,8.389202864135006,0.8171042001063641,-8.642537064370773,-0.9187964199310283
