th1 (rad),w1 (rad/s),th2 (rad),w2 (rad/s)
0.5421565828574236,2.499498758313183,1.2694571077966241,-0.6588794417486079
0.5671515704405554,2.5013606092628002,1.262868313379138,-0.7953911147012508
0.5921651765331835,2.502229316632475,1.2549144022321255,-0.9295504635420246
0.6171874696995082,2.5020243307053778,1.2456188975967053,-1.0610641182169382
0.642207713006562,2.500596179402096,1.235008256414536,-1.1895748453259982
0.6672136748005829,2.4977173339672194,1.223112507961276,-1.3146485070144778
0.6921908481402551,2.493073421985799,1.209966022891131,-1.4357614434850376
0.7171215823601131,2.486255837930255,1.1956084084562808,-1.5522897667572488
0.7419841407394157,2.4767572792153234,1.1800855107887083,-1.6635026994401758
0.7667517135315689,2.4639722457180984,1.1634504837943065,-1.7685627779528958
0.7913914359887498,2.44720496689141,1.1457648560147775,-1.8665363028826623
0.815863485657664,2.4256873670962587,1.1270994929859508,-1.9564175877338372
0.8401203593286266,2.398609278497162,1.1075353171086124,-2.0371699601064663
0.8641064521135983,2.3651618803948113,1.0871636175075476,-2.107784719761411
0.8877580709175463,2.3245931212751576,1.0660857703099336,-2.1673561386526368
0.9110040021302979,2.276270812309622,1.0444122089234071,-2.215166317589316
0.9337667102533941,2.2197457955319155,1.022260545747514,-2.250769181577843
0.9559641682087132,2.154805188186643,0.9997528539317356,-2.274059646811701
0.9775122200905797,2.0815054391299914,0.9770122574636186,-2.2853137686608203
0.9983272744818796,2.000177585760529,0.9541591197770104,-2.285189547524284
1.0183290503394848,1.9114023689908448,0.9313072243017676,-2.274685563409547
1.0374430740293934,1.8159592242155769,0.9085603686676721,-2.2550635552783063
1.0556026662715492,1.7147584608759674,0.8860097331148891,-2.227748417721486
1.0727502508803088,1.608768430110121,0.8637322489376742,-2.194222428973703
1.0888379351814101,1.4989486619289953,0.8417900246479372,-2.155929194926832
1.1038274218007,1.3861966598611097,0.8202307326986689,-2.1141980054268172
1.117689388399311,1.2713118067607252,0.7990887526444007,-2.0701932402653593
1.1304025064669183,1.1549760837061789,0.7783868202417471,-2.024888142790208
1.1419522673039801,1.037748833536862,0.7581379388138451,-1.9790588126988071
1.1523297556393488,0.9200717306250921,0.738347350686857,-1.933292805087739
1.1615304729455997,0.8022801300279014,0.7190144226359796,-1.8880067929043953
1.1695532742458787,0.6846176025964121,0.7001343547069356,-1.843468694336046
1.176399450271843,0.5672513199380865,0.6816996677635752,-1.7998209178881253
1.1820719634712238,0.4502867765286159,0.6637014585846939,-1.757102570612092
1.1865748312365099,0.33378100204312905,0.646130432878573,-1.7152694355002946
1.1899126412569412,0.21775389444655752,0.62897773852357,-1.6742112111390597
1.1920901802014068,0.10219761298017471,0.6122356264121793,-1.633765949803976
1.1931121563312086,-0.012915851676691556,0.5958979669141395,-1.5937318852931899
1.1929829978144417,-0.12762872548135562,0.5799606480612076,-1.5538769661975531
1.1917067105596282,-0.24199288330408164,0.5644218783992321,-1.5139464514763288
1.1892867817265873,-0.3560664354659299,0.5492824138844687,-1.4736689180881062
1.185726117371928,-0.46991125975445813,0.5345457247035876,-1.4327609986564764
1.1810270047743834,-0.5835912979521494,0.5202181147170228,-1.390931125624932
1.1751910917948618,-0.6971714642716358,0.5063088034607736,-1.3478825158320933
1.1682193771521454,-0.8107170386647435,0.4928299783024526,-1.3033155906703833
1.1601122067654979,-0.924293439133849,0.4797968223957488,-1.2569299943012517
1.1508692723741594,-1.0379662832486247,0.46722752245273624,-1.208426346760239
1.1404896095416732,-1.1518016598393312,0.45514325898513386,-1.1575078505272394
1.12897159294328,-1.2658665372187552,0.44356818047986146,-1.1038818584069505
1.1163129275710924,-1.380229234133717,0.43252936189579194,-1.0472615076115264
1.1025106352297551,-1.4949598736181582,0.4220567468196767,-0.9873675303080123
1.0875610364935735,-1.6101307273672931,0.41218307151659656,-0.9239303655659276
1.0714597292199006,-1.7258163381497456,0.4029437678609373,-0.8566927231314035
1.0542015658384032,-1.8420932786493294,0.39437684062962325,-0.7854127878948334
1.03578063305191,-1.9590393650207631,0.3865227127506749,-0.7098683080905316
1.0161902394017024,-2.076732089924431,0.37942402966976957,-0.6298618835447991
0.9954229185024581,-2.1952459701150957,0.3731254108343216,-0.5452278663964603
0.9734704588013071,-2.314648415099454,0.367673132170357,-0.45584140910610943
0.9503239746503126,-2.4349936141670674,0.3631147180792959,-0.3616303451310805
0.9259740385086419,-2.5563138100658604,0.3594984146279851,-0.2625907641795122
0.9004109004079833,-2.6786071852639486,0.35687250698619,-0.15880733567827746
0.8736248285553438,-2.8018214486613964,0.3552844336294072,-0.050479613910600976
0.8456066140687298,-2.9258321139486925,0.35477963749030117,0.06204432950511979
0.8163482929292429,-3.050414475144861,0.35540008078535235,0.17822565807752283
0.7858441481777944,-3.1752085291792365,0.3571823373661276,0.29728302158732967
0.754092062886002,-3.2996767558899767,0.3601551675820009,0.41813143335921277
0.7210952953271021,-3.423056003567887,0.36433648191559304,0.5393139006654508
0.6868647352914232,-3.5443070514837522,0.36972962092224754,0.6589313571898094
0.6514216647765857,-3.6620689761638285,0.3763189344941456,0.7745816307883641
0.6148009750149475,-3.7746301669551543,0.38406475080202923,0.8833250042764734
0.577054673345396,-3.8799328984985952,0.392898000844794,0.9817011805631125
0.53825534436041,-3.9756316757982466,0.4027150126504251,1.0658270962278364
0.49849902760242754,-4.059223538862367,0.4133732836127034,1.1316018615223091
0.45790679221380387,-4.128256994720633,0.4246893022279265,1.1750281584379332
0.41662422226659757,-4.180603329566524,0.43643958381230585,1.1926259730606013
0.37481818897093233,-4.214744249699301,0.44836584354291187,1.181871081588839
0.33267074647393935,-4.230006190381958,0.46018455435880024,1.1415561210537295
0.2903706845701198,-4.226671127643754,0.4716001155693375,1.0719708105254298
0.24810397329368222,-4.205924815020656,0.4823198236745918,0.9748424107336773
0.20604472514347566,-4.169655435860899,0.4920682477819286,0.8530528667055892
0.16434817078486666,-4.120162626662492,0.5005987764489845,0.7102178513720313
0.12314654451824174,-4.059855357119768,0.5077009549627048,0.5502412398806198
0.08254799094704406,-3.9910030550570985,0.5132033673615111,0.3769397283721405
0.04263796039647307,-3.915572057256962,0.5169727646452325,0.1937865604499569
0.0034822398239034505,-3.8351480384123247,0.518910630249732,0.003777970762787658
-0.0348692405602198,-3.7509258624721395,0.5189484099573599,-0.19060240730861636
-0.07237849918494119,-3.6637424299407875,0.5170423858842738,-0.3873552681223643
-0.10901592348434906,-3.5741309437858955,0.5131688332030501,-0.58490424668121
-0.14475723292220802,-3.482381298255782,0.507319790736238,-0.7820236093046011
-0.17958104590476584,-3.388597530114588,0.499499554643192,-0.9777684556445476
-0.2134670212059117,-3.292747986543711,0.48972187008674656,-1.1714141087391838
-0.24639450107134883,-3.19470686289086,0.47800772899935473,-1.362406977630364
-0.2783415697002574,-3.0942873994014026,0.4643836592230511,-1.5503267047676172
-0.30928444369427144,-2.9912677586508494,0.4488803921753749,-1.7348582354682793
-0.33919712128077995,-2.8854108149725146,0.4315318098206921,-1.9157720418539548
-0.3680512294305051,-2.7764790334234632,0.4123740894021526,-2.0929107334081105
-0.39581601976473973,-2.6642454554539445,0.3914449820680715,-2.2661804667068504
-0.4224584743192792,-2.5485016267173237,0.36878317740100297,-2.435545803678819
-0.44794349058645244,-2.42906314083405,0.3444277193642148,-2.601026898377996
-0.4722341219947929,-2.3057733484607645,0.31841745038043484,-2.7626980887441954
-0.4952918554794006,-2.1785056985630464,0.29079046949299286,-2.9206871216187014
-0.5170769124650311,-2.047165138103754,0.26158359827680583,-3.075174343077405
-0.5375485638460686,-1.9116889960545127,0.23083185484603178,-3.226391240244606
-0.5566654538066138,-1.7720478173129075,0.19856794244358572,-3.3746177220331286
-0.5743859319797429,-1.6282466934163355,0.16482176522325442,-3.5201774686460667
-0.5906683989139062,-1.4803277639698025,0.12961999053679374,-3.6634305536144383
-0.6054716765536042,-1.3283747415863536,0.09298568500064935,-3.8047623350664574
-0.6187554239694678,-1.1725205504390888,0.05493806164998478,-3.9445673113746937
-0.6304806294738587,-1.0129594672258024,0.015492388536237842,-4.083226231263026
-0.6406102241461168,-0.8499655043578984,-0.02533987377639242,-4.2210742466133
-0.6491098791896958,-0.683919140817262,-0.06755061624252542,-4.358357342496289
-0.6559490705978683,-0.5153447902892708,-0.11113418966748831,-4.495173797309188
-0.6611025185007611,-0.3449613949638551,-0.15608592764058019,-4.631397287882747
-0.6645521324503996,-0.1737478625177103,-0.20239990051940765,-4.7665789811846775
-0.6662896110755767,-0.0030230739930158512,-0.2500656903312544,-4.899828438267585
-0.6663198418155069,0.165464076490653,-0.29906397471393026,-5.029678731701179
-0.6646652010506003,0.3294468201524597,-0.3493607620309421,-5.153951444917181
-0.6613707328490758,0.48607880511890245,-0.4009002764801139,-5.269653231715887
-0.6565099447978867,0.6319371807315314,-0.45359680879727277,-5.3729558881122355
-0.6501905729905714,0.7631412397758672,-0.5073263676783951,-5.459329152647671
-0.6425591605928127,0.8756352900077375,-0.5619196592048719,-5.523893807367776
-0.6338028076927353,0.965652401485613,-0.6171585972785496,-5.562020479498403
-0.6241462836778792,1.0303055651724091,-0.6727788020735337,-5.570105299849582
-0.6138432280261551,1.0681635357713524,-0.7284798550720295,-5.546332620979961
-0.6031615926684416,1.0796147490085655,-0.7839431812818292,-5.491161425768389
-0.592365445178356,1.0668639466086682,-0.838854795539513,-5.407327177587407
-0.5816968057122693,1.0335454850293777,-0.8929280673153871,-5.299338482678705
-0.5713613508619756,0.9840946650248802,-0.9459214521421742,-5.172658892675977
-0.5615204042117268,0.9230922854465647,-0.9976480410689339,-5.0328611567413
-0.5522894813572611,0.8547562010511177,-1.047976652636347,-4.884982781537356
-0.5437419193467499,0.7826503412788028,-1.0968264804517205,-4.7331717566096545
-0.5359154159339619,0.7095903777766286,-1.144158198017817,-4.580589853857295
-0.5288195121561956,0.6376819138811533,-1.18996409655639,-4.429485207604439
-0.5224426930173841,0.5684255240261976,-1.2342589486324345,-4.2813461413582745
-0.5167584377771222,0.5028411888895132,-1.2770724100460171,-4.137074070143468
-0.511730025888227,0.4415852973239184,-1.3184431507474519,-3.9971414455096883
-0.5073141729149878,0.3850487680085067,-1.3584145652025488,-3.861721198820183
-0.5034636852349027,0.33343393021680273,-1.3970317771907506,-3.7307859223283515
-0.5001293459327347,0.28681216371169843,-1.4343396364140342,-3.604180442020503
-0.49726122429561775,0.24516582441161736,-1.4703814408342393,-3.4816731230645903
-0.49480956605150156,0.20841807869683324,-1.5051981720648853,-3.3629911161701074
-0.49272538526453324,0.17645377675485446,-1.5388280832265864,-3.247843919503288
-0.4909608474969847,0.149133849063262,-1.5713065224216192,-3.1359386575894095
-0.4894695090063521,0.1263051028705864,-1.6026659089975133,-3.0269896035814736
-0.4882064579776462,0.10780679398295179,-1.632935805033328,-2.920723767286554
-0.4871283900378167,0.09347496158588013,-1.6621430427061936,-2.8168838379579197
-0.4861936404219579,0.08314522574118743,-1.690311881085773,-2.715229381033618
-0.485362188164546,0.07665453816070733,-1.717464174896109,-2.615536909543286
-0.48459564278293893,0.07384222750976308,-1.7436195439915418,-2.517599254977497
-0.4838572205078413,0.07455057487216254,-1.7687955365413168,-2.4212245259619234
-0.4831117147591197,0.07862508082930698,-1.793007781800936,-2.3262348487307545
-0.4823254639508266,0.08591453377264985,-1.8162701302882436,-2.2324650185085964
-0.4814663186131001,0.09627095300216512,-1.8385947804733296,-2.1397611464839748
-0.48050360908307843,0.10954945517308008,-1.8599923919381693,-2.047979356765477
-0.47940811453134763,0.12560807542382738,-1.8804721855058242,-1.956984567149276
-0.47815203377710935,0.1443075627189641,-1.900042031177317,-1.8666493736449752
-0.4767089581499197,0.16551116093702076,-1.9187085249137668,-1.7768530494017551
-0.4750538465405495,0.1890843818798074,-1.9364770554077844,-1.6874806625006535
-0.47316300272175144,0.21489477287466424,-1.953351862032791,-1.598422313035848
-0.4710140549930048,0.24281167942273005,-1.9693360851631494,-1.5095724873138832
-0.46858593819877753,0.2727060020209531,-1.9844318100362883,-1.4208295253845284
-0.465858878178568,0.3044499455777015,-1.9986401052901337,-1.332095197156769
-0.462814378722791,0.3379167595587801,-2.0119610572617015,-1.2432743818251246
-0.4594352111272032,0.37298046700819987,-2.024393801079953,-1.1542748450805793
-0.4557054064571212,0.40951558079321826,-2.0359365495307586,-1.0650071084993382
-0.451610250649189,0.4473968057621987,-2.046586620615752,-0.9753844055158429
-0.447136282591567,0.4864987259336123,-2.0563404646709107,-0.8853227184402062
-0.44227129533223086,0.526695476326446,-2.065193691855313,-0.7947408910356001
-0.4370043405689664,0.5678603995779923,-2.073141100765669,-0.7035608111994742
-0.4313257365731865,0.6098656880630566,-2.0801767088776635,-0.6117076582721972
-0.42522707969255596,0.6525820128222234,-2.0862937854603856,-0.5191102094112966
-0.41870125956433374,0.6958781412220418,-2.0914848875544987,-0.42570119930617073
-0.41174247815211334,0.7396205459043688,-2.0957418995475603,-0.3314177272572603
-0.40434627269306966,0.7836730082336324,-2.099056076820133,-0.23620170529814594
-0.39650954261073335,0.8278962201170208,-2.1014180938731144,-0.14000034059432975
-0.38823058040956315,0.8721473887499833,-2.1028180972790578,-0.0427666448065991
-0.3795091065220633,0.9162798495226652,-2.1032457637271236,0.055540037539405174
-0.37034630802683666,0.9601426930044497,-2.1026903633517295,0.15495349037876477
-0.36074488109679215,1.0035804125934382,-2.101140828447942,0.2555000866620723
-0.3507090769708578,1.0464325800621772,-2.098585827581321,0.3571982585854645
-0.340244751170236,1.088533556833554,-2.0950138449954667,0.46005798891881206
-0.32935941560190046,1.1297122493611693,-2.0904132651062786,0.5640803358783317
-0.31806229310828876,1.1697919174423732,-2.0847724617474954,0.6692570050369518
-0.306364373933865,1.2085900446311983,-2.0780798916971257,0.7755699828092611
-0.29427847348755304,1.2459182801101891,-2.070324191869033,0.8829912470559631
-0.2818192906864512,1.2815824613880595,-2.0614942793984734,0.9914825712890095
-0.2690034660725706,1.3153827269737957,-2.051579453685583,1.100995439782185
-0.2558496388028326,1.347113727693289,-2.0405694992877614,1.2114710915579678
-0.24237850152589974,1.3765649445150137,-2.0284547883721817,1.3228407116816838
-0.2286128520807496,1.403521119587878,-2.015226381255365,1.4350257884974675
-0.21457764088487083,1.427762805617871,-2.0008761233703902,1.547938655335415
-0.20030001282869211,1.4490670366725047,-1.985396736817036,1.6614832347545156
-0.18580934246196706,1.4672081209591137,-1.9687819044694908,1.7755560025140131
-0.17113726125237594,1.4819585530375576,-1.9510263444443505,1.8900471871464701
-0.15631767572200037,1.4930900392731936,-1.9321258725728858,2.0048422192104134
-0.14138677532926844,1.500374626100713,-1.9120774503807816,2.119823442017813
-0.12638302906826132,1.503585915862094,-1.8908792159606034,2.2348720928745682
-0.11134716990964039,1.5025003496360234,-1.8685304950318578,2.3498705606850296
-0.09632216641328015,1.4968985306549234,-1.8450317894250075,2.4647049222382615
-0.08135318110673091,1.486566555705952,-1.8203847402026248,2.5792677557459034
-0.06648751554967139,1.4712973154665616,-1.7945920626451657,2.693461226425414
-0.05177454239500577,1.4508917182014596,-1.7676574503809115,2.8072004353647095
-0.03726562521299118,1.4251597848464053,-1.7395854460272644,2.9204170198734283
-0.023014027364527123,1.393921557450687,-1.7103812758285302,3.033062991391036
-0.009074811790020254,1.3570077574843955,-1.6800506459146198,3.1451147962030888
0.004495265784823701,1.3142601258797113,-1.6485994979525889,3.256577585170663
0.017637867043620813,1.2655313730945223,-1.6160337221008823,3.3674896818718505
0.03029318077456604,1.2106846651627707,-1.5823588252821637,3.477927244431339
0.04240002742619375,1.1495925707993109,-1.5475795528378502,3.588009125242855
0.05389595313418685,1.0821353953095778,-1.5116994615854216,3.697901944993929
0.06471730708728263,1.0081988294910824,-1.4747204421354823,3.8078254128642053
0.07479929538219346,0.9276708461942132,-1.4366421880068403,3.9180579430780837
0.08407600384413559,0.8404377843093979,-1.3974616085760594,4.028942638120998
0.09248038168722957,0.7463795708278207,-1.3571721821948495,4.140893728855965
0.09994417739550777,0.6453640485402456,-1.31576324490629,4.254403577872575
0.10639781788091023,0.5372404040957934,-1.2732192091275643,4.370050358373221
0.11177022192186815,0.4218317361064381,-1.2295187055438321,4.48850650600574
0.11598853928293254,0.29892687905151527,-1.1846336404837747,4.610547987011264
0.1189778080734477,0.16827172890713368,-1.1385281606136621,4.737064301786959
0.12066052536251903,0.029560540064940632,-1.0911575175957926,4.8690688955379375
0.12095613076316844,-0.1175719528433451,-1.0424668286404133,5.007709186938064
0.11978041123473498,-0.2735560768973617,-0.9923897367710326,5.1542745981892155
0.11704485046576137,-0.43888779362967684,-0.9408469907891405,5.310199515585218
0.1126559725294646,-0.61411976750095,-0.8877449956332883,5.477055592463129
0.10651477485445511,-0.7998351967819123,-0.832974439708657,5.656523508305715
0.098516422886636,-0.9965913694112755,-0.7764092046255999,5.8503270792554645
0.08855050919252323,-1.2048113178805715,-0.7179059338330452,6.0601007932445565
0.07650239601371751,-1.424588632523271,-0.6573049259005996,6.287143302431575
0.0622565096884848,-1.6553515303915893,-0.5944334928762839,6.531982624933933
0.0457029943845689,-1.8953100320513743,-0.5291136666269446,6.793646599746886
0.026749894064055157,-2.140597820772523,-0.46117720062947576,7.068512087963653
0.005343915856329928,-2.3840588827027362,-0.39049207974983924,7.348654063607434
-0.018496672970697434,-2.6138113976133264,-0.3170055391137649,7.619859257058507
-0.0446347869468307,-2.812188485643272,-0.2408069465431798,7.860104782608368
-0.07275667180326342,-2.956427254462186,-0.16220589871709612,8.040363469342147
-0.10232094434788529,-3.0229382626120755,-0.08180226402367465,8.130242989164232
-0.13255032697400604,-2.9954993094152043,-0.0004998341320323202,8.108942598670474
-0.16250532006815807,-2.8734702749032652,0.08058959185467242,7.976210426784808
-0.1912400228171907,-2.6732729049328876,0.1603516961225205,7.754135266959945
-0.2179727518665196,-2.421063853649319,0.23789304879211998,7.477096081176909
-0.2421833904030128,-2.142614901923297,0.31266400960388907,7.1781831560378855
-0.26360953942224574,-1.8571961864942068,0.38444584116426794,6.881253496044837
-0.28218150128718783,-1.5766247220507414,0.4532583761247163,6.59999035231576
-0.29794774850769523,-1.3069827750310945,0.519258279647874,6.340450093928887
-0.3110175762580062,-1.0507456905215082,0.5826627805871628,6.1040289496498294
-0.3215250331632213,-0.8084030994509414,0.6437030700836611,5.889660377479022
-0.3296090641577307,-0.5794769940368759,0.7025996738584513,5.69516002049474
-0.3354038340980995,-0.3630968070517806,0.7595512740633987,5.517962876963424
-0.3390348021686173,-0.1583008020071795,0.814730902833033,5.355494267771347
-0.3406178101886891,0.03581779158690898,0.8682858455107464,5.205338911905288
-0.34025963227282,0.22004836821553592,0.9203392346297993,5.065305205882572
-0.33805914859066466,0.3950439655347531,0.970992286688625,4.9334381833713286
-0.33410870893531713,0.5613238604078606,1.0203266685223382,4.808009357260048
-0.32849547033123855,0.7192861840328661,1.0684067620949387,4.68749778416708
-0.3213026084909099,0.869224574998689,1.1152817399366095,4.570569317647417
-0.312610362740923,1.0113458530416057,1.1609874331130836,4.456057177449017
