th1 (rad),w1 (rad/s),th2 (rad),w2 (rad/s),a1 (rad/s^2),a2 (rad/s^2)
6.031552954387019,0.25620305658915654,3.949475364941404,0.7743566486349898,4.459407256300747,9.32290350685544
6.03411498495291,0.300797129152164,3.9572189314277537,0.8675856837035442,4.346039368837567,9.321883415499212
6.037122956244432,0.3442575228405397,3.965894788264789,0.9608045178585363,4.218542576860448,9.321982002411069
6.040565531472837,0.38644294860914413,3.9755028334433744,1.054024337882647,4.076752783135202,9.322952329817209
6.0444299609589285,0.42721047644049615,3.986043076822201,1.1472538611808192,3.920496012490528,9.324527893295658
6.048702065723333,0.4664154365654014,3.9975156154340095,1.2404991401137757,3.749592646548318,9.326429160191925
6.053366220088987,0.5039113630308846,4.009920606835148,1.333763431715695,3.563862004976876,9.328370912763962
6.058405333719295,0.5395499830806534,4.023258241152305,1.4270471408433347,3.3631272224625413,9.330070420741539
6.0638008335501015,0.5731812553052787,4.0375287125607375,1.5203478450507502,3.1472203560830385,9.331256462575535
6.069532646103155,0.6046534588661091,4.052732191011245,1.6136604096765055,2.9159876408748175,9.3316792073371
6.075579180691816,0.6338133352748573,4.06886879510801,1.7069772017498765,2.669294792169351,9.331120960112358
6.081917314044564,0.6605062831965508,4.085938567125509,1.800288411351,2.407032231889566,9.329407763070524
6.08852237687653,0.6845766055154464,4.103941451239018,1.8935824889817052,2.129120092732023,9.326421832576377
6.095368142931685,0.7058678064427666,4.122877276128835,1.986846707307469,1.8355128294341594,9.322114800390128
6.102426820996112,0.7242229347371082,4.14274574320191,2.0800678553113703,1.5262032407062402,9.316521714998974
6.109669050343483,0.7394849671441706,4.163546421755024,2.17323307246136,1.2012256796027772,9.30977574856373
6.117063900014925,0.7514972239401984,4.185278752479638,2.2663308299469973,0.8606582049553312,9.30212354722192
6.124578872254327,0.7601038059897517,4.207942060779108,2.3593520654192166,0.5046234029234855,9.293941159222474
6.132179910314225,0.7651500400189866,4.2315355814333,2.4522914770114412,0.133287586731954,9.28575047849328
6.1398314107144145,0.7664829158863061,4.256058496203414,2.545148981796374,-0.2531419347705485,9.278236152900911
6.147496239873278,0.7639514965386006,4.281509986021377,2.6379313433253833,-0.6544218420760479,9.272262928953088
6.155135754838664,0.7574072781178401,4.307889299454631,2.730653972614914,-1.0702803736551174,9.268893440389068
6.162709827619842,0.746704474381289,4.3351958391807806,2.8233429070188047,-1.5004278105684163,9.269406499317194
6.170176872363656,0.7317001962756048,4.363429268250969,2.9160369720119768,-1.9445702056856895,9.275316017388905
6.177493874326411,0.7122544942187479,4.3925896379710885,3.0087901321858657,-2.4024266768182247,9.288390772606357
6.184616419268599,0.6882302274505656,4.422677539292947,3.1016740399119294,-2.8737505684884894,9.310675345684436
6.1914987215431045,0.6594927217656807,4.453694279692066,3.1947807933687735,-3.35835476765926,9.344512678235471
6.198093648760762,0.6259091740890882,4.485642087625754,3.2882259201511284,-3.8561414345418004,9.392568851492896
6.204352740501652,0.5873477597436702,4.518524346827266,3.3821516086660575,-4.36713637938665,9.457860844244202
6.210226218099089,0.5436763959498037,4.552345862913926,3.4767302171084995,-4.891528276121302,9.543788193316091
6.2156629820585865,0.4947611131885906,4.587113165085011,3.57216809904166,-5.4297128451645555,9.654169633830028
6.2206105931904725,0.44046398473694504,4.622834846075428,3.6687097953799603,-5.982342043504752,9.793285913023192
6.225015233037842,0.3806405643018975,4.659521944029227,3.7666426545101923,-6.550378138440617,9.965930006018674
6.228821638680861,0.31513678291749136,4.697188370574329,3.866301954570379,-7.135152256221563,10.177465839460114
6.231973006510036,0.24378526035527573,4.7358513901200325,3.9680766129649805,-7.738426491841178,10.433896223309977
6.234410859113589,0.16640099543686393,4.775532156249683,4.072415575198081,-8.362457778254743,10.741939790290102
6.2360748690679575,0.0827764176543165,4.816256312001664,4.179834973100982,-9.010060168204987,11.109114989211701
6.236902633244501,-0.0073241840277333825,4.858054661732673,4.290926122993099,-9.684659520927946,11.543825970219489
6.236829391404224,-0.10417077923701284,4.900963922962604,4.406364382695294,-10.390330042506,12.055439519168784
6.2357876836118535,-0.20807407966207284,4.945027566789557,4.526918777886982,-11.131794421204223,12.654332326051996
6.233706942815233,-0.3193920238741151,4.990296754568427,4.653462101147501,-11.914356288356029,13.351870908287385
6.230513022576492,-0.43853558675767534,5.036831375579903,4.786980810230375,-12.743711860251585,14.160257578069455
6.226127666708916,-0.5659727053601912,5.084701183682206,4.92858338601107,-13.62555099525317,15.092126813603242
6.220467939655314,-0.7022282153127228,5.133987017542317,5.079504654147103,-14.564796971806777,16.159693924109945
6.213445657502186,-0.8478761850307905,5.184782064083788,5.241101593388202,-15.564233990795378,17.373120741711347
6.204966895651879,-1.0035185249387444,5.23719308001767,5.414832800805316,-16.622109402711622,18.737539318371997
6.194931710402491,-1.1697396189658607,5.2913414080257235,5.602208193989036,-17.728045037489913,20.247821964345356
6.183234314212832,-1.34702006934076,5.3473634899656135,5.804686413632489,-18.856223951480214,21.87966541866431
6.169764113519425,-1.535582308855562,5.405410354101939,6.023483067819132,-19.95435652695607,23.574888832015294
6.154408290430869,-1.7351258741251228,5.46564518478013,6.259231956139285,-20.926564881640818,25.218279510486738
6.137057031689618,-1.944391522941531,5.528237504341523,6.5114147512441525,-21.608730947193134,26.60376715734706
6.117613116460202,-2.160478832413462,5.593351651853965,6.777452422817623,-21.737815707057894,27.39161349838437
6.096008328136067,-2.377856989484041,5.661126176082141,7.051368557801466,-20.92584004722938,27.07074870341923
6.072229758241226,-2.5871153899563346,5.731639861660156,7.322076044835659,-18.669287199136715,24.967928735057853
6.046358604341663,-2.7738082619477016,5.804860622108513,7.571755332186237,-14.452719521674261,20.384260156294737
6.018620521722186,-2.918335457164444,5.880578175430375,7.775597933749185,-8.006827484324084,12.942412963744129
5.989437167150541,-2.998403732007685,5.958334154767867,7.905022063386626,0.325630845919398,3.0819545861660202
5.9594531298304645,-2.9951474235484907,6.037384375401733,7.935841609248286,9.399740604222963,-7.684952072269671
5.929501655594979,-2.9011500175062612,6.116742791494216,7.858992088525589,17.619427087903162,-17.254605360799058
5.9004901554199165,-2.72495574662723,6.195332712379472,7.686446034917599,23.725919085478633,-23.999983990896386
5.873240597953644,-2.4876965557724433,6.2721971727286485,7.446446195008635,27.341690578929526,-27.49079786461987
5.84836363239592,-2.214279649983148,6.346661634678735,7.171538216362436,28.851208492908025,-28.307786277827113
5.8262208358960885,-1.9257675650540678,6.418377016842359,6.888460353584165,28.932772553318145,-27.397449778603583
5.806963160245548,-1.6364398395208863,6.4872616203782005,6.614485855798129,28.200975760632186,-25.593599150342996
5.790598761850339,-1.3544300819145645,6.553406478936182,6.3585498642947,27.082721844279977,-23.461667337263215
5.777054461031193,-1.0836028634717647,6.616991977579129,6.123933190922068,25.83155922941303,-21.328005796777585
5.766218432396475,-0.8252872711776345,6.67823130948835,5.910653132954292,24.58104581256216,-19.35752525144302
5.757965559684699,-0.5794768130520128,6.737337840817893,5.717077880439862,23.392490687985102,-17.620364086079096
5.752170791554179,-0.3455519061721618,6.794508619622292,5.540874239579071,22.287267694009312,-16.13586941145761
5.748715272492458,-0.12267922923206867,6.849917362018083,5.3795155454644945,21.26618358854221,-14.898293053866462
5.747488480200137,0.08998260665335342,6.903712517472727,5.2305326149258295,20.320355582093995,-13.890768306649136
5.748388306266671,0.2931861624742934,6.956017843621986,5.0916249318593385,19.437070886680914,-13.092500039513173
5.751320167891414,0.4875568713411026,7.006934092940579,4.960699931464207,18.602834090176472,-12.48223676688034
5.756195736604825,0.6735852122428674,7.056541092255221,4.835877563795403,17.80488667998973,-12.03978235485474
5.762931588727254,0.8516340790427647,7.104899867893176,4.715479740246856,17.031914447104246,-11.746512451406737
5.771447929517682,1.0219532235138071,7.152054665295644,4.598014615732788,16.27433160615705,-11.585412510705662
5.78166746175282,1.1846965395753777,7.198034811452972,4.4821604906257315,15.5243489057896,-11.540909063238725
5.7935144271485735,1.3399400286332737,7.2428564163592295,4.366751399993344,14.775934037480456,-11.598634013641446
5.806913827434906,1.4876993690080782,7.286523930359163,4.2507650598569295,14.024719424385172,-11.745191495528568
5.821790821124987,1.6279465632519299,7.329031580957732,4.133313144901644,13.267884289427842,-11.967959588608142
5.838070286757506,1.7606254061462083,7.370364712406749,4.013633549015562,12.504023369331277,-12.254939546582827
5.855676540818968,1.885665639839521,7.410501047896905,3.891084153549734,11.733007521646071,-12.594654832249287
5.874533197217364,2.002995715055982,7.449411889432403,3.765137605227241,10.955838342699717,-12.976096831814962
5.8945631543679236,2.112554098482979,7.487063265484675,3.635376636909091,10.174497881959086,-13.388711326636251
5.915688695352753,2.2142990773025697,7.523417031853766,3.5014895236427286,9.391794542793923,-13.82241844548578
5.937831686125779,2.308217022730509,7.558431927090194,3.363265339187871,8.61120670259123,-14.267658292701698
5.960913856353084,2.3943290897564213,7.592064580482072,3.2205887562608537,7.836726129762842,-14.715454434019504
5.984857147250648,2.47269635105405,7.6242704680446804,3.0734342119206586,7.072703738218308,-15.157487756945393
6.009584110761189,2.5434233884362327,7.655004810163887,2.9218593343512045,6.323700511821936,-15.586173809532905
6.035018344645551,2.606660393554452,7.684223403507399,2.7659975962558754,5.594346521188138,-15.994737493728959
6.061084948581096,2.6626038587663334,7.711883379469958,2.606050221318586,4.88921084803172,-16.377279893151616
6.087710987168759,2.7114959672466505,7.737943881683144,2.4422774223870696,4.212684954200843,-16.728833002898416
6.114825946841226,2.753622816788659,7.762366655907014,2.2749890923580853,3.5688816195713122,-17.045399158716656
6.142362175009112,2.789311632984372,7.785116546830595,2.104535100770919,2.96155106390751,-17.32397299799847
6.170255291338957,2.8189271436234473,7.8061618978383045,1.9312953707909344,2.39401529942209,-17.562544794252346
6.198444562775191,2.8428672966176682,7.825474851546214,1.755669922848411,1.8691211658055824,-17.760084962840665
6.226873235741368,2.861558508275724,7.843031550774698,1.5780690732200042,1.3892119060656387,-17.9165104144247
6.255488820824126,2.8754506273363805,7.8588122415068975,1.3989039690757572,0.9561165735851378,-18.032634210493228
6.28424332709749,2.885011793072232,7.872801281197655,1.2185776269708248,0.5711560388476516,-18.110100629781606
6.313093445028212,2.890723353460708,7.884987057467364,1.0374766206730088,0.23516390549216604,-18.151308263241905
6.342000678562819,2.89307499251563,7.895361823674094,0.8559635380405898,-0.05147973677695855,-18.159324098375187
6.3709314284879754,2.8925601951478606,7.9039214590545,0.6743702970568379,-0.28880409182192,-18.137791714733137
6.399857030439454,2.8896721542296415,7.910665162025068,0.49299237990950656,-0.4771955483979879,-18.09083667999012
6.428753751981751,2.8849001987456617,7.915595085824163,0.3120840131096054,-0.6173403914490835,-18.022972004696644
6.457602753969208,2.878726794831171,7.918715925955259,0.13185429306263893,-0.7101651069458446,-17.93900608287717
6.4863900219175195,2.8716251437617126,7.920034468885885,-0.047535767766132775,-0.7567770839902623,-17.84395491586539
6.515106273355136,2.86405737292181,7.9195591112082235,-0.22597531692478667,-0.7584085549524152,-17.742959585271045
6.543746847084354,2.8564732873722862,7.917299358038976,-0.4034049127774971,-0.7163667155543555,-17.641208893458177
6.572311579958077,2.8493096202167427,7.9132653089112015,-0.579817001712079,-0.6319932072107362,-17.543865790779176
6.600804676160244,2.8429896881446353,7.907467138894081,-0.7552556596198707,-0.5066366210764599,-17.455994588772608
6.629234573041691,2.8379233219338706,7.899914582297882,-0.9298156055075968,-0.34164252395621786,-17.382483899612776
6.65761380626103,2.8345068966943083,7.890616426242806,-1.1036404445037244,-0.13836687667863923,-17.327957559665222
6.685958875227973,2.833123227927522,7.879580021797769,-1.2769200201003768,0.10177916569710256,-17.29666221725959
6.7142901075072485,2.834141019584493,7.866810821596765,-1.4498866422729726,0.3772419302358418,-17.292315412071027
6.742631517703093,2.837913438886851,7.852311955174035,-1.622809796393683,0.686179690431013,-17.317891344879275
6.771010652091961,2.8447752357911615,7.836083857210099,-1.7959887098424756,1.0262368600312206,-17.375312522816504
6.799458404449873,2.8550376043914736,7.8181239701116745,-1.9697418350706406,1.3942072308000455,-17.46500343207212
6.8280087804937875,2.868979676699474,7.798426551760968,-2.1443918693913617,1.7855444210250664,-17.58524692211803
6.856698577260782,2.886835120909725,7.776982633067054,-2.320244338612542,2.1936643695303246,-17.731265475404236
6.8855669284698795,2.9087717646050284,7.753780189680929,-2.4975569933665844,2.6089710510439614,-17.89393045800317
6.91465464611593,2.934861475115468,7.728804619747263,-2.676496297946616,3.0175278178257265,-18.05798989570404
6.944003260867085,2.965036753293725,7.702039656767797,-2.857076196903656,3.399304822293357,-18.19971567910185
6.973653628400022,2.9990298015166585,7.67346889479876,-3.0390733536946746,3.7259819977788,-18.283937695151813
7.003643926415189,3.0362896214944466,7.643078161261814,-3.2219127306461925,3.9584208048505407,-18.260615762325184
7.0340068226301335,3.075873829542952,7.610859033955352,-3.404518888269444,4.044205106294546,-18.061495798021557
7.064765560925563,3.1163158806058977,7.576813845072658,-3.5851338462496596,3.9161758371974495,-17.59812086999795
7.0959287197316225,3.1554776389778723,7.540962506610161,-3.7611150549496393,3.493686647078722,-16.763578182082217
7.1274834961214015,3.1904145054486595,7.503351356060665,-3.9287508367704613,2.6892283141508306,-15.441637453393907
7.159387641175888,3.2173067885901676,7.464063847692961,-4.0831672113044,1.4234607682695473,-13.527473607590366
7.19156070906179,3.231541396272863,7.423232175579916,-4.218441947380303,-0.3498243103131358,-10.96205088280739
7.223876123024518,3.2280431531697316,7.381047756106113,-4.328062456208377,-2.6123606296871023,-7.775184787665822
7.256156554556216,3.2019195468728605,7.337767131544029,-4.405814304085035,-5.2556635432836245,-4.120595776572822
7.288175750024944,3.1493629114400243,7.293708988503179,-4.4470202618507635,-8.079368422491763,-0.2773168209085024
7.319669379139344,3.068569227215107,7.249238785884672,-4.449793430059849,-10.826960728045815,3.4007993736727915
7.350355071411495,2.9602996199346485,7.204740851584074,-4.415785436323121,-13.251364692913985,6.576570417460512
7.379958067610842,2.8277859730055086,7.160582997220843,-4.350019732148517,-15.180056010038658,9.019447364973074
7.408235927340897,2.675985412905122,7.117082799899357,-4.259825258498786,-16.54737350180002,10.649088802046334
7.434995781469948,2.5105116778871217,7.07448454731437,-4.153334370478323,-17.384486586358147,11.519818008199557
7.460100898248819,2.33666681202354,7.032951203609587,-4.038136190396327,-17.782977197858596,11.76876469991053
7.483467566369055,2.158837040044954,6.992569841705623,-3.9204485433972214,-17.8555453870962,11.560667666228005
7.505055936769504,1.9802815861739922,6.953365356271651,-3.8048418667349413,-17.70841196341507,11.049515208336134
7.5248587526312445,1.8031974665398414,6.9153169376043016,-3.69434671465158,-17.428046114702763,10.360420609468907
7.542890727296643,1.6289170053928137,6.8783734704577855,-3.590742508556891,-17.078296518066345,9.586049541890404
7.559179897350571,1.4581340402121503,6.842466045372216,-3.4948820131379867,-16.702935587284244,8.790529642356415
7.573761237752692,1.291104684339308,6.8075172252408365,-3.4069767167144227,-16.330042285124005,8.015826152861736
7.5866722845960854,1.127804261488068,6.773447458073692,-3.3268184551858053,-15.976336080511587,7.287960203533944
7.597950327210966,0.968040900682952,6.740179273521834,-3.253938853150466,-15.65073214891254,6.622072969033606
7.6076307362177955,0.8115335791938266,6.707639884990329,-3.18771812346013,-15.356992318504343,6.02618110831128
7.615746072009734,0.6579636560087831,6.675762703755728,-3.127456312377017,-15.095592365676795,5.503807202663272
7.6223257085698215,0.5070077323520152,6.644488140631958,-3.0724182403503844,-14.864989345619984,5.055751824205403
7.627395785893341,0.3583578388958154,6.6137639582284535,-3.0218607221083302,-14.662459595241614,4.681251749076254
7.630979364282299,0.21173324294339926,6.58354535100737,-2.9750482046175675,-14.48464210228033,4.3787160322426075
7.633096696711734,0.06688682192059597,6.5537948689611945,-2.9312610442951414,-14.327885419778278,4.146179061161538
7.63376556493094,-0.0763920322771868,6.524482258518243,-2.889799253683526,-14.188466520768191,3.981567192078852
7.633001644608168,-0.21827669748486872,6.495584265981408,-2.8499835817627375,-14.062727923035187,3.882844290262734
7.6308188776333195,-0.35890397671522056,6.46708443016378,-2.81115513886011,-13.947163883399995,3.8480796292513637
7.627229837866167,-0.4983756155492205,6.4389728787751785,-2.7726743425675964,-13.838475845585103,3.875466789803165
7.622246081710675,-0.6367603740050716,6.4112461353495025,-2.733919674669565,-13.733610190776034,3.963312368602414
7.615878477970624,-0.7740964759128319,6.383906938602807,-2.6942865509835405,-13.62978658618141,4.110006883157568
7.608137513211496,-0.9103943417746461,6.356964073092971,-2.653186482151965,-13.52452206910934,4.313986117683426
7.599033569793749,-1.0456395624657395,6.330432208271452,-2.6100466209751305,-13.415653903599294,4.573688520597075
7.588577174169092,-1.1797961015017324,6.3043317420617,-2.5643097357691595,-13.301362843160232,4.887512614784413
7.576779213154075,-1.3128097299333348,6.278688644704009,-2.5154346096213156,-13.18019749014339,5.253777367431737
7.563651115854742,-1.4446117048347686,6.2535342986077955,-2.462896835946998,-13.051099807031346,5.670687853731613
7.5492049988063945,-1.575122702905082,6.228905330248326,-2.406189957409682,-12.913431410695017,6.136308182009198
7.533453771777344,-1.7042570170120321,6.204843430674229,-2.34482687558959,-12.767000007590601,6.648543421385018
7.516411201607224,-1.831927017087938,6.181395161918333,-2.2783414413757397,-12.612085170088674,7.205132115093685
7.498091931436345,-1.9580478687888248,6.158611747504576,-2.2062901202248026,-12.449462591045817,7.803650823425046
7.478511452748457,-2.082542494699283,6.136548846302328,-2.1282536119905524,-12.280425973901178,8.441531985515779
7.457686027801464,-2.205346754438295,6.115266310182423,-2.0438382921353946,-12.106805812282321,9.116096195027078
7.435632560257081,-2.326414812561118,6.094827927261069,-1.952677330185124,-11.93098448085785,9.824599734698124
7.412368412131469,-2.4457246573696967,6.075301153959218,-1.8544313328381428,-11.755907290693031,10.564297897501623
7.387911165557773,-2.563283730276627,6.056756840630837,-1.7487883538631266,-11.585089445498209,11.332524228768337
7.362278328255006,-2.679134624731609,6.039268957092205,-1.6354631115754432,-11.42261914935635,12.126785344271005
7.33548698200769,-2.7933608162251726,6.022914325976451,-1.5141952581327331,-11.273157428229332,12.944870397260477
7.307553373845438,-2.906092390507466,6.007772373395124,-1.3847465541601283,-11.14193548366055,13.78497355019131
7.278492449940363,-3.0175117453440716,5.993924907853523,-1.2468968186582152,-11.03475051491705,14.645826890193836
