th1 (rad),w1 (rad/s),th2 (rad),w2 (rad/s),a1 (rad/s^2),a2 (rad/s^2)
5.12490512349245,-3.140263220241961,2.429008275874768,1.5001302821499258,12.683265460850079,9.288138872368215
5.093502491290031,-3.0134305656334606,2.4440095786962672,1.593011670873608,12.448839008352001,8.966951437545129
5.0633681856336965,-2.8889421755499405,2.4599396954050032,1.6826811852490593,12.136545045052088,8.524122036308697
5.034478763878197,-2.7675767250994197,2.476766507257494,1.7679224056121463,11.770697189917081,7.997213256881317
5.0068029966272025,-2.6498697532002486,2.4944457313136152,1.8478945381809595,11.372211862990502,7.418159005663273
4.9803042990952004,-2.5361476345703435,2.512924676695425,1.9220761282375922,10.958373833891565,6.813013878898539
4.954942822749497,-2.426563896231428,2.532145437977801,1.9902062670265777,10.542930000293477,6.202205599023403
4.930677183787183,-2.321134596228493,2.552047500648067,2.052228323016812,10.13639487186209,5.601100428412579
4.907465837824898,-2.219770647509872,2.572569783878235,2.1082393273009377,9.74647010677435,5.02072594040187
4.8852681313497985,-2.1223059464421286,2.5936521771512444,2.1584465867049563,9.378504455750214,4.468536648469505
4.864045071885378,-2.0285209018846264,2.615236643018294,2.203131953189651,9.035944006835232,3.949146914868492
4.8437598628665315,-1.9381614618162741,2.6372679625501907,2.242623422338336,8.720742569022294,3.4649876527342673
4.824378248248369,-1.8509540361260512,2.659694196773574,2.2772732988656785,8.433717218325388,3.0168671518074897
4.805868707887108,-1.7666168639427973,2.6824669297622306,2.3074419703837536,8.17484455246155,2.604432399646924
4.78820253924768,-1.6848684184181817,2.7055413494660683,2.333486294380223,7.943499802728177,2.226536967854146
4.771353855063499,-1.6054334203909,2.7288762124098707,2.3557516640587646,7.738644587372028,1.8815265531337828
4.75529952085959,-1.5280469745171796,2.752433729050458,2.3745669295901024,7.558970668594963,1.5674551253306284
4.740019051114419,-1.45245726783123,2.776179398346359,2.3902414808434087,7.403007342857772,1.2822445507916767
4.725494478436106,-1.3784271944026523,2.800081813154793,2.4030639263513254,7.269199608310485,1.0237994091727671
4.7117102064920795,-1.3057351983195473,2.8241124524183063,2.413301920443053,7.155963397280225,0.7900870949262961
4.698652854508884,-1.2341755643467451,2.848245471622737,2.421202791392316,7.061723180435734,0.5791915564874827
4.686311098865417,-1.1635583325423877,2.87245749953666,2.426994706957191,6.984936285969651,0.38934738227964144
4.6746755155399935,-1.0937089696826912,2.896727446606232,2.4308881807799874,6.924107406545519,0.2189594929576558
4.6637384258431664,-1.024467895617236,2.9210363284140315,2.433077775709564,6.877796019716236,0.0666124783055322
4.653493746886994,-0.9556899354200736,2.945367106171127,2.4337439004926193,6.84461882897818,-0.06892737784035294
4.643936847532793,-0.8872437471302919,2.9697045451760533,2.433054626714216,6.823248833569444,-0.1887151319475016
4.63506441006149,-0.8190112587945975,2.9940350914431955,2.4311674753947408,6.8124122401544955,-0.29363363718029856
4.626874297473544,-0.7508871363930525,3.018346766197143,2.428231139022938,6.810884121384025,-0.3844022550420075
4.6193654261096135,-0.6827782951792123,3.0426290775873723,2.4243871164725177,6.817483488298078,-0.46158700890019144
4.612537643157822,-0.6146034602962315,3.0668729487520974,2.4197712463835157,6.831068260781392,-0.5256116266835642
4.606391608554859,-0.5462927776884176,3.0910706612159324,2.41451513011668,6.850530480178165,-0.576769108145591
4.600928680777975,-0.4777874728866359,3.1152158125170994,2.408747439035224,6.8747920004311105,-0.6152335840711548
4.596150806049109,-0.4090395528823248,3.1393032869074515,2.4025951031945127,6.9028008105677054,-0.6410723237775637
4.592060410520285,-0.34001154477664775,3.1633292379393967,2.396184379956737,6.933528075735836,-0.6542578036312298
4.588660295072519,-0.27067626401928935,3.187291081738964,2.389641801920425,6.965965931614103,-0.6546797813111355
4.585953532432327,-0.2010166047031483,3.2111874997581684,2.3830950041073136,6.9991260245415,-0.6421573347758517
4.583943366385295,-0.13102534445773328,3.2350184497992416,2.376673430759555,7.032038754863596,-0.6164508266385098
4.582633112940718,-0.06070495690909733,3.258785184106837,2.37050892249317,7.063753152372534,-0.5772737482637487
4.582026063371627,0.009932574614628015,3.2824902733317685,2.3647361850105324,7.093337289578371,-0.5243043869574155
4.582125389117773,0.08086594751041172,3.306137635181874,2.359493141140958,7.119879120612765,-0.4571972470919162
4.582934048592877,0.15206473871653936,3.3297325665932833,2.354921168670039,7.142487620860474,-0.37559414431987875
4.5844546959800425,0.2234896149251441,3.3532817782799835,2.35116522722684,7.160294095117053,-0.27913488308009815
4.586689592129294,0.29509255587631467,3.376793430552252,2.348373878396039,7.172453520377382,-0.16746742277538115
4.589640517688057,0.3668170910800885,3.400277169336212,2.346699204168285,7.178145793369288,-0.040257438152874345
4.593308688598858,0.43859854901378137,3.423744161377895,2.3462966297867562,7.176576762580334,0.10280281514407813
4.597694674088996,0.5103643166395847,3.4472071276757625,2.3473246579381972,7.166978939474682,0.2619864083695276
4.602798317255392,0.5820341060343315,3.4706803742551444,2.3499445220218926,7.148611803302831,0.4375244844347136
4.608618658315735,0.6535202240673598,3.4941798194753635,2.3543197668662397,7.120761637581559,0.6295998850739947
4.615153860556409,0.7247278404431754,3.517723017144026,2.3606157657169797,7.08274086299264,0.8383416857858618
4.62240113896084,0.7955552490731018,3.541329174801196,2.3689991825748384,7.03388686003653,1.063820643512413
4.6303566914515715,0.8658941176734671,3.565019166626944,2.3796373890099627,6.973560304177598,1.3060455428510385
4.639015632628306,0.9356297207152431,3.588815540517044,2.392697844438473,6.9011430654003,1.5649604100926457
4.648371929835458,1.0046411513692461,3.6127425189614284,2.4083474485393994,6.816035752186624,1.8404425517134966
4.658418341349151,1.0728015088911125,3.6368259934468226,2.4267518740565346,6.717655006280531,2.1323013658883885
4.669146356438062,1.139978058953918,3.6610935121873878,2.4480748877154186,6.605430678856913,2.4402778724509804
4.680546137027601,1.206032365742487,3.685574261064542,2.4724776664399286,6.478803040795973,2.7640449082971217
4.692606460685027,1.2708203961504467,3.7102990377289413,2.5001181155228998,6.3372201999146505,3.1032079407756434
4.705314664646531,1.3341925981495932,3.7353002188841704,2.5311501949306563,6.180135916744812,3.457306459885274
4.718656590628027,1.3959939573170415,3.760611720833477,2.565723259529509,6.007008028551207,3.825815919343196
4.732616530201197,1.4560640376025535,3.786268953428772,2.6039814187229413,5.817297709760157,4.208150204577813
4.747177170577222,1.5142370147001551,3.8123087676160017,2.6460629207687196,5.6104698170548915,4.603664609709098
4.762319540724224,1.570341712870704,3.8387693968236887,2.6920995668658105,5.385994590558356,5.011659302379443
4.778022957852931,1.6242016587762875,3.865690392492347,2.742216159889605,5.143351010542173,5.431383241041579
4.794264974440694,1.6756351688817093,3.893112554091243,2.796529992300021,4.882032144158093,5.862038479391975
4.811021326129511,1.7244554903232903,3.9210778540142432,2.8551503770939406,4.601552861565148,6.302784741454186
4.828265881032744,1.7704710189389417,3.9496293577851826,2.9181782245084826,4.301460359152024,6.752744071439432
4.845970591222133,1.8134856225304619,3.9788111400302673,2.985705665222877,3.9813480041530913,7.211005246254246
4.864105447447438,1.8532991025719927,4.008668196682496,3.0578157176854197,3.6408731162863077,7.67662747438565
4.882638438473157,1.8897078337348558,4.03924635385935,3.1345819924292764,3.2797794367299558,8.14864267886819
4.901535516810506,1.9225056281021553,4.070592173783643,3.2160684192179585,2.897925214226467,8.626055356294271
4.920760573091528,1.95148488024442,4.102752857975823,3.3023289727809013,2.4953180772460195,9.107838595781278
4.940275421893972,1.9764380610168801,4.1357761477036314,3.393407358738714,2.0721581789509806,9.592924303143613
4.960039802504141,1.99715964280639,4.169710221291019,3.4893366017701504,1.6288915216748714,10.08018497138382
4.980011398932205,2.0134485580231387,4.20460358730872,3.5901384514839885,1.1662759175937785,10.568403427366466
5.0001458845124365,2.0251113171990767,4.24050497182356,3.695822485757653,0.6854627529524348,11.056225818794038
5.020396997684427,2.031965944728601,4.277463196681136,3.806384743945593,0.18809862436149458,11.542091636122912
5.040716657131713,2.0338469309722162,4.315527044120592,3.921805660306822,-0.3235479722989943,12.024132748987638
5.061055126441436,2.0306114512492264,4.35474510072366,4.042046987796699,-0.8464284022761354,12.500031260757284
5.081361240953928,2.022147167226465,4.395165570601627,4.167047300404271,-1.3765161414695906,12.966823495895905
5.101582712626193,2.008382005811769,4.43683604360567,4.29671553536323,-1.9085601174346587,13.420634809826057
5.121666532684311,1.9892964046374224,4.479803198959302,4.43092188346149,-2.435778696226816,13.856327569347236
5.141559496730685,1.9649386176751542,4.5241124177939165,4.569485159154962,-2.9494839116418317,14.267043439998577
5.161208882907436,1.935443778558736,4.569807269385466,4.712155593554948,-3.4386279127936774,14.643622593417463
5.1805633206930235,1.9010574994307992,4.616928825321016,4.858591819489123,-3.8892704057849623,14.973889284276646
5.199573895687331,1.8621647953729494,4.665514743515907,5.008330712331889,-4.28398034543945,15.241809717740303
5.218195543641061,1.819324991918555,4.715598050639225,5.160748809509292,-4.60121199487548,15.426560536392357
5.236388793560247,1.7733128719698001,4.767205538734318,5.315014414873216,-4.814740706561971,15.501602849538244
5.2541219222799445,1.7251654649041803,4.820355682883051,5.470030443368599,-4.893313386355175,15.433946167926816
5.271373576928986,1.6762323310406286,4.8750559873167365,5.6243699050478675,-4.800764897005487,15.183913262932826
5.288135900239392,1.6282246820705737,4.931299686367216,5.776209037677196,-4.496965490479622,14.705870720607942
5.3044181470600975,1.5832550271657775,4.989061776743988,5.923267744883276,-3.940062208775123,13.950528953826682
5.320250697331756,1.5438544050780263,5.0482944541928205,6.062773034421543,-3.090485911607938,12.869445243144597
5.335689241382536,1.5129495459619469,5.108922184537036,6.191467486852989,-1.916997116614177,11.422128794870213
5.350818736842155,1.4937795747958051,5.170836859405566,6.305688774801691,-0.4045066891160692,9.585472124492114
5.365756532590113,1.4897345079046445,5.233893747153583,6.401543496046612,1.4375125048191677,7.36405488603728
5.380653877669159,1.504109632952836,5.297909182114049,6.475184044906984,3.568300283815627,4.7984540714217605
5.395694973998688,1.5397926357909923,5.362661022563119,6.523168585621202,5.913733519223963,1.9678083249741267
5.411092900356597,1.598929970983232,5.42789270841933,6.5428466688709435,8.371352846700033,-1.0164431726210852
5.42708220006643,1.6826434994502324,5.49332117510804,6.532682237144733,10.822828967310212,-4.025974262057775
5.443908635060932,1.7908717891233346,5.558647997479487,6.492422494524154,13.151147091136325,-6.936528789496985
5.461817352952165,1.9223832600346977,5.623572222424729,6.423057206629185,15.25748912497641,-9.647942442651182
5.481041185552512,2.074958151284462,5.68780279449102,6.326577782202673,17.07283243382138,-12.096978817629115
5.501790767065357,2.2456864756226755,5.751068572313047,6.205607994026382,18.561714967127145,-14.260029916267314
5.524247631821583,2.431303625293947,5.81312465225331,6.063007694863709,19.718851197091706,-16.146942397601165
5.548560668074523,2.628492137264864,5.873754729201948,5.901538270887697,20.561458713455856,-17.78991952831884
5.574845589447172,2.8341067243994225,5.932770111910824,5.723639075604508,21.12051661086323,-19.231718688253686
5.603186656691166,3.0453118905080547,5.990006502666869,5.531321888721971,21.433226548832664,-20.51597304617019
5.633639775596247,3.2596441559963814,6.045319721554089,5.326162158260269,21.537642395965253,-21.68070747553174
5.666236217156211,3.475020579956034,6.098581343136691,5.109355083504951,21.469441959916068,-22.754846385538364
5.700986422955771,3.6897149995551946,6.14967489397174,4.881806619649567,21.26032082427767,-23.75692439738468
5.737883572951323,3.9023182077979714,6.198492960168236,4.64423737567572,20.937380945980642,-24.695126051065245
5.7769067550293025,4.111692017257778,6.244935333924993,4.397286115165068,20.52297915808879,-25.56793782359121
5.81802367520188,4.316921808838666,6.288908195076644,4.141606736929156,20.03465272231717,-26.36491003830735
5.861192893290267,4.5172683360618375,6.330324262445935,3.877957636546083,19.484879231382827,-27.067210837760808
5.906365576650885,4.712117128375666,6.369103838811396,3.607285528168475,18.88053563741837,-27.647790133529504
5.953486747934642,4.90092248474985,6.405176694093081,3.3308076268331797,18.222002740914224,-28.071074362070725
6.002495972782141,5.083142512158992,6.438484770361413,3.0500968832124724,17.501937067342734,-28.292214731966677
6.053327397903731,5.25816188283242,6.4689857391935375,2.7671747358928056,16.703828737275693,-28.256052130356274
6.105909016732055,5.425200170205176,6.496657486552466,2.484614214589243,15.80061322751714,-27.896185066387503
6.160161018434107,5.583206302480348,6.521503628698358,2.205652363925368,14.75383674361826,-27.13487238795738
6.215993081458911,5.730744669916531,6.543560152337612,1.934303640045794,13.514198369618718,-25.88497637871957
6.273300528158076,5.865886653612718,6.56290318873807,1.6754538762585982,12.024651391469373,-24.055663483172506
6.331959394694204,5.986133167527412,6.579657727500656,1.434897241426873,10.227447521631131,-21.563837197579474
6.391820726369478,6.088407642743723,6.594006699914925,1.2192588694510782,8.07615221962164,-18.352693842457708
6.452704802796916,6.16916916493994,6.606199288609436,1.0357319310265012,5.552202257414189,-14.41658024534638
6.5143964944463155,6.224691187514082,6.616556607919701,0.8915661285730374,2.682724127804178,-9.827090230833022
6.576643406321456,6.2515184287921235,6.6254722692054315,0.7932952262647072,-0.4471503910031743,-4.750222868185502
6.6391585906093775,6.247046924882092,6.633405221468078,0.7457929975828521,-3.695888937539237,0.5579322550336725
6.701629059858198,6.2100880355067,6.640863151443907,0.7513723201331889,-6.8861699103803655,5.784487451823511
6.763729940213265,6.141226336402896,6.648376874645239,0.8092171946514239,-9.840758045108167,10.616361686070727
6.825142203577294,6.0428187559518145,6.656469046591753,0.9153808115121312,-12.420531243613963,14.800496127141281
6.885570391136812,5.9186134435156745,6.665622854706874,1.063385772783544,-14.549261786247001,18.18434726557358
6.944756525571969,5.773120825653205,6.67625671243471,1.24522924543928,-16.217152982587535,20.72409696108206
7.002487733828501,5.6109492958273295,6.688709004889103,1.4524702150501005,-17.466353409233548,22.4647522757361
7.058597226786775,5.436285761734994,6.703233707039604,1.6771177378074615,-18.368467977839423,23.506803074053163
7.112960084404125,5.2526010819566,6.720004884417678,1.9121857685479933,-19.00362917579653,23.973908933138766
7.165486095223691,5.062564790198635,6.739126742103158,2.151924857879381,-19.446115375399373,23.989564045034864
7.216111743125677,4.868103636444641,6.760645990681952,2.3918204983297295,-19.75706402992758,23.664088343597104
7.264792779490124,4.670532996145365,6.784564195665249,2.6284613817657005,-19.98249564143887,23.089655156607023
7.311498109451578,4.470708039730976,6.810848809482906,2.8593579333317707,-20.154417811199195,22.340206716948817
7.356205189848888,4.269163861618984,6.839442388816224,3.082760000501259,-20.293262975378855,21.47369081248929
7.398896828465078,4.066231231865196,6.870269988821236,3.297496908626152,-20.410589626975028,20.53498881711181
7.43955914078373,3.8621253355954455,6.903244957907497,3.50284679679727,-20.511513747728795,19.558684878059942
7.4781803941396845,3.6570101981181575,6.93827342587547,3.6984336455778695,-20.596670726265376,18.571328428037706
7.514750496120866,3.4510434908555037,6.975257762331248,3.8841469298582467,-20.663681167455323,17.593114066263773
7.549260931029422,3.2444066791809503,7.014099231629831,4.060078070520884,-20.708167628585624,16.639025751444244
7.581704997821231,3.037325002895094,7.054700012335039,4.226468328035327,-20.724390672940352,15.719532971019683
7.6120782478501825,2.8300810961656904,7.096964695615393,4.383663657745523,-20.705571156368944,14.840928459892243
7.640379058811839,2.623025384602001,7.140801332192848,4.5320729423444455,-20.643957717355892,14.005385283851016
7.666609312657859,2.4165858074284423,7.186122061616293,4.6721267951829555,-20.530692788562405,13.210799811602582
7.6907751707321435,2.211278879542818,7.232843329568122,4.804234793298981,-20.35553226703655,12.450484935405573
7.7128879595275714,2.0077235568724525,7.280885677501112,4.928739642653037,-20.106487207821086,11.712791412217534
7.732965195096296,1.8066586847942416,7.330173073927642,5.045867556775212,-19.769484055944634,10.980770130284645
7.7510317819442385,1.6089638442347953,7.380631749495394,5.155675258078059,-19.32818524905388,10.232048429813862
7.767121420386586,1.4156819917442565,7.432188502076174,5.257995742376197,-18.764172374822998,9.439177421602146
7.781278240304029,1.2280402679960265,7.484768459499937,5.352387516592219,-18.057756883691145,8.57079854750727
7.793558642983989,1.047462699159115,7.538292334665859,5.438095502067291,-17.18971702522886,7.594034339447184
7.80403326997558,0.8755655289068264,7.592673289686532,5.5140358454617635,-16.14420650693063,6.478452114336551
7.812788925264648,0.71412346383752,7.64781364814115,5.578820366605129,-14.912862387727797,5.201672427933277
7.8199301599030235,0.564994839960242,7.703601851807201,5.630837090884461,-13.499695595406529,3.756108609000499
7.825580108302626,0.4299978840061767,7.759910222716045,5.668398176974466,-11.925712889177063,2.1554708666779496
7.829880087142688,0.3107407551144061,7.81659420448579,5.689952885641246,-10.231622525394082,0.43885088717997
7.832987494693832,0.20842452986046525,7.873493733342203,5.694341394513045,-8.47684792554526,-1.3299990034589815
7.835071739992436,0.12365605060501265,7.930437147287333,5.681041404478455,-6.733836693494891,-3.069588023300269
7.836308300498486,0.05631768367006375,7.987247561332118,5.650345524245452,-5.078305218817666,-4.693016263272188
7.836871477335187,0.005534631481887091,8.043751016574571,5.60341536161273,-3.577893069033347,-6.122473993361429
7.836926823650006,-0.03024429920844638,8.0997851701907,5.542190621679116,-2.2826033196142603,-7.301471701590756
7.836624380657922,-0.053070332404588985,8.15520707640749,5.469175904663208,-1.219707772888663,-8.201291292378068
7.836093677333876,-0.06526741013347562,8.209898835454123,5.3871629917394275,-0.39390137579669315,-8.820662550179005
7.835441003232542,-0.06920642389144255,8.263770465371516,5.298956366237637,0.2084409968251578,-9.180208726034637
7.834748938993627,-0.06712201392319098,8.316760029033892,5.207154278977291,0.6130419723327156,-9.314475872467286
7.834077718854395,-0.060991594199863816,8.368831571823666,5.114009520252618,0.8515424602223375,-9.264150824518655
7.833467802912397,-0.05247616959764044,8.419971667026193,5.021368012007431,0.9566021106164069,-9.070028965631991
7.832943041216421,-0.04291014849147637,8.470185347146266,4.930667722351111,0.9586812741295638,-8.76919357523111
7.832513939731506,-0.03332333575018073,8.519492024369777,4.8429757865988,0.8843432151125401,-8.393145467973598
7.832180706374004,-0.02447990359905533,8.567921782235764,4.759044331919064,0.7556736452815015,-7.967327656022473
7.831935907338013,-0.016923167146240314,8.615512225554955,4.679371055358839,0.5903964659699857,-7.511486271340196
7.831766675666551,-0.011019202486540456,8.662305936108543,4.604256192645437,0.40235123541375234,-7.040435869675642
