th1 (rad),w1 (rad/s),th2 (rad),w2 (rad/s)
5.704882081891326,2.546138910534252,0.7215023074565452,-2.442501853665652
5.730343470996669,2.6491615444997407,0.6970772889198886,-2.5972723033467724
5.756835086441666,2.758491620061918,0.6711045658864209,-2.761267395995849
5.784420002642285,2.875005817234484,0.6434918919264624,-2.9355559358738335
5.81317006081463,2.999675738957045,0.614136332567724,-3.121343122876345
5.8431668182042005,3.1335623174033027,0.5829229013389606,-3.319964107428341
5.874502441378233,3.277793910456629,0.5497232602646772,-3.5328549998716294
5.907280380482799,3.4335143458325414,0.514394710265961,-3.7614822847181326
5.941615523941125,3.6017775047837897,0.47677988741877964,-4.007198118604854
5.9776332989889625,3.783349694032252,0.4367079062327311,-4.270967560241755
6.015466795929285,3.9783585940076778,0.39399823063031353,-4.552882335263
6.055250381869362,4.185700162121543,0.34846940727768355,-4.851337232072898
6.097107383490577,4.402097509191522,0.29995603495695455,-5.161720517927812
6.141128358582493,4.620747304817403,0.24833882977767643,-5.474527099314484
6.187335831630667,4.829704401637894,0.1935935587845316,-5.773103117733688
6.235632875647045,5.010719378419002,0.13586252760719472,-6.0320191358912805
6.2857400694312355,5.140168073260767,0.07554233624828191,-6.21836293314611
6.337141750163843,5.194170272356398,0.013358706916820812,-6.298884634903096
6.389083452887407,5.157923575253802,-0.049630139432210146,-6.253026899454609
6.440662688639945,5.034094256023595,-0.11216040842675623,-6.084620055216206
6.491003631200181,4.842677244670342,-0.17300660897891829,-5.821643850619005
6.539430403646884,4.611606756784006,-0.23122304748510836,-5.503091314048358
6.585546471214724,4.366093982567471,-0.28625396062559194,-5.164104789352494
6.629207411040399,4.12342885513063,-0.33789500851911686,-4.8287679533491055
6.670441699591706,3.893121704496177,-0.3861826880526079,-4.510340217413565
6.709372916636667,3.679211010495232,-0.4312860902267436,-4.21448968511726
6.746165026741619,3.482542063035698,-0.4734309870779162,-3.9424688827991434
6.780990447371976,3.3023398315804697,-0.5128556759059076,-3.6932996757556626
6.81401384568778,3.1371302902565033,-0.5497886726634642,-3.465049144705872
6.845385148590346,2.9852287198323415,-0.5844391641105229,-3.2555033828255238
6.875237435788669,2.8449774131904912,-0.6169941979387781,-3.0624938630407734
6.903687209920574,2.7148489467861383,-0.6476191365691858,-2.884037947962686
6.930835699388435,2.5934811472564965,-0.6764595160488126,-2.718385249747192
6.956770510861,2.479679284195413,-0.7036433685462845,-2.564018970953639
6.981567303702954,2.3724038886634635,-0.7292835582558209,-2.4196375893625652
7.005291342589589,2.2707534173204222,-0.7534799341494466,-2.284129550346266
7.027998876762793,2.173946187115849,-0.7763212296529093,-2.1565470178054236
7.049738338633952,2.0813035497017167,-0.7978866998309635,-2.0360813608957247
7.070551374130969,1.992235045077808,-0.8182475134399207,-1.922041373061644
7.090473724581747,1.9062256794928076,-0.8374679271705372,-1.8138344135489932
7.109535981376675,1.8228252032462908,-0.8556062713060272,-1.7109503010122349
7.127764233409138,1.7416391581604174,-0.8727157743161496,-1.61294765120477
7.145180624990743,1.6623214383736833,-0.8888452508281972,-1.5194423208414265
7.161803839374479,1.5845681187392808,-0.9040396740366115,-1.4300976385427542
7.1776495205618716,1.5081123307384223,-0.9183406504220389,-1.3446161415770157
7.192730643869256,1.432719995758737,-0.9317868118378091,-1.2627325793810915
7.207057843826843,1.3581862548651917,-0.94441413763162,-1.1842079848835476
7.220639706375495,1.2843324607334614,-0.9562562174804554,-1.108824649780765
7.23348303098283,1.2110036205817463,-0.967344463978263,-1.0363818694177243
7.245593067188648,1.1380661987516305,-0.9777082826724403,-0.9666923470195818
7.256973729176164,1.0654062043524697,-0.9873752061426361,-0.8995791663263161
7.267627791219689,0.9929275034803884,-0.9963709978058992,-0.8348732569454788
7.277557066254492,0.9205503073289372,-1.0047197303753541,-0.772411288698817
7.286762569327782,0.8482097973578362,-1.0124438432623424,-0.7120339405753171
7.29524466730136,0.7758548568615982,-1.0195641826680955,-0.6535844972071856
7.3030032158699765,0.7034468850157549,-1.0261000276401673,-0.5969077315544392
7.310037684720134,0.6309586749701004,-1.0320691049557116,-0.5418490371253593
7.316347271469835,0.5583733419710954,-1.037487595326965,-0.48825377689663396
7.321931004889547,0.48568329097331103,-1.0423701330959314,-0.43596681937439236
7.32678783779928,0.41288921587194194,-1.0467298012896753,-0.3848322351334099
7.330916729957999,0.33999912447464975,-1.0505781236410094,-0.3346931298056487
7.334316721202746,0.26702738474404253,-1.053925054939066,-0.28539159193078306
7.336986995050186,0.19399378878906304,-1.0567789708583737,-0.23676873636030776
7.338926932938077,0.12092263166586328,-1.0591466582219768,-0.1886648260223727
7.340136159254736,0.04784180236124497,-1.0610333064822006,-0.14091945678388082
7.340614577278348,-0.025218115538732544,-1.0624425010500393,-0.09337179185313169
7.340362396122961,-0.0982247359687707,-1.0633762189685707,-0.04586083360757035
7.339380148763273,-0.1711447577835195,-1.0638348273046465,0.0017742781357090454
7.337668701185438,-0.2439448499311525,-1.0638170845232895,0.04969395160138368
7.335229252686126,-0.31659253685120603,-1.0633201450072756,0.09805782206912034
7.332063327317615,-0.38905708642877046,-1.0623395667865843,0.14702443417106464
7.328172756453327,-0.46131040264059076,-1.0608693224448735,0.1967509375857353
7.323559652426921,-0.5333279247634135,-1.0589018130690162,0.24739280697116067
7.318226373179287,-0.6050895347071272,-1.0564278849993045,0.2991035980505605
7.312175477832215,-0.6765804737263519,-1.0534368490187989,0.35203475312919047
7.305409673094952,-0.7477922695096982,-1.049916501487507,0.4063354709254356
7.297931750399855,-0.8187236745138798,-1.0458531467782526,0.4621526573804894
7.289744513654717,-0.889381616478354,-1.0412316202044476,0.5196309760052202
7.280850697489933,-0.9597821624109851,-1.0360353104443953,0.5789130182713166
7.271252875865824,-1.0299514980670246,-1.0302461802616822,0.6401396165100215
7.2609533608851535,-1.099926926145206,-1.023844784096582,0.7034503237194698
7.249954091623701,-1.1697578881881365,-1.0168102808593873,0.7689840866031123
7.23825651274182,-1.239507017589001,-1.0091204399933562,0.8368801401059243
7.225861442565931,-1.309251234258593,-1.000751638592297,0.9072791537652181
7.212768930223345,-1.3790828954776062,-0.9916788470546448,0.980324662482655
7.198978101268569,-1.4491110223278523,-0.9818756004298183,1.056164817042299
7.184486991045291,-1.519462626940972,-0.9713139522593952,1.1349544930923219
7.169292364775881,-1.59028417270509,-0.959964407328472,1.2168578016771467
7.15338952304883,-1.6617432076144902,-0.9477958293117005,1.3020510501041356
7.136772090972685,-1.7340302202254214,-0.9347753188106591,1.3907262093427293
7.119431788770431,-1.8073607782814174,-0.9208680567172318,1.4830949536845563
7.101358180987616,-1.881978022061068,-0.9060371071803862,1.5793933504087894
7.082538400767006,-1.9581555978803098,-0.8902431736762983,1.6798872919566692
7.062956844788203,-2.036201131793707,-0.8734443007567316,1.7848787806345523
7.0425948334702655,-2.1164603589027347,-0.855595512950386,1.8947131956582954
7.021430229881238,-2.1993220386769514,-0.8366483809938031,2.009787693025298
6.999437009494469,-2.2852237990210766,-0.8165505040635501,2.130560907172541
6.976584771504258,-2.374659056999203,-0.7952448949918247,2.2575641335301406
6.952838180934266,-2.468185153760178,-0.7726692536565233,2.391414161349378
6.928156329396664,-2.5664327998865577,-0.7487551120430295,2.5328278752973326
6.902492001397799,-2.670116827201095,-0.7234268332900562,2.682638613675144
6.875790833125788,-2.7800480338351905,-0.6966004471533047,2.8418139912754925
6.847990352787436,-2.897145501314916,-0.6681823072405498,3.0114743413883396
6.819018897774287,-3.022447995450038,-0.6380675638266664,3.1929098819890127
6.788794417819786,-3.157121652579844,-0.6061384650067763,3.3875927702063526
6.7572232012939875,-3.302458597965371,-0.5722625373047128,3.597176678276631
6.724198615314334,-3.45985657289436,-0.5362907705219464,3.823470187441613
6.6896000495853905,-3.630761591158739,-0.49805606864753027,4.0683590968449925
6.653292433673803,-3.816541762188645,-0.45737247767908035,4.333633398345434
6.615127016051916,-4.018237427807656,-0.414036143695626,4.620642559690344
6.57494464177384,-4.236097536936643,-0.36782971809872256,4.929653446440816
6.532583666404474,-4.4687669093792755,-0.3185331836343144,5.258721610443965
6.487895997310681,-4.711957659817789,-0.2659459675298747,5.60184205941263
6.440776420712504,-4.9565065960406045,-0.2099275469357484,5.946240173159907
6.391211354752097,-5.186100806011503,-0.15046514520414933,6.269193912769249
6.339350346691982,-5.375962378079275,-0.08777320607645683,6.536188897500985
6.28559072291119,-5.495319194198696,-0.02241131710144699,6.7043582054277575
6.230637530969203,-5.516617786485161,0.04463226495283058,6.735339884728924
6.175471353104351,-5.429387296084272,0.11198566380011982,6.614620117960103
6.121177480143508,-5.248180589309428,0.17813186497972083,6.362573563430756
6.068695674250414,-5.00552204610607,0.2417576006140284,6.0245626934591305
6.018640453789353,-4.736042409182149,0.3020032275486197,5.648796397545067
5.971280029697532,-4.465341050550316,0.3584911915240704,5.270853876843277
5.926626619192029,-4.207933905281248,0.4111997302925032,4.910889487777069
5.884547280139216,-3.9700891371818843,0.4603086251702739,4.5776185850643145
5.844846388767397,-3.7532600099733076,0.5060848110209171,4.273104329166967
5.807313788667664,-3.556520734705018,0.5488158543125867,3.9961408707567823
5.771748581320614,-3.377966056013374,0.5887772630201545,3.74419035339985
5.737968920760481,-3.2154241353984876,0.626219166554153,3.5143655314124795
5.705814679406496,-3.0667851691235852,0.6613628218682778,3.303880159976047
5.67514682771526,-2.930133164861685,0.6944016234680382,3.1102276914010933
5.645845496066642,-2.803783048690528,0.7255039003820491,2.9312298127520546
5.617807665579737,-2.686275344593562,0.7548161985095697,2.765026939582386
5.590944912133802,-2.576354057249501,0.7824664679053935,2.6100459029334098
5.565181371561307,-2.472939839719198,0.8085669269347276,2.4649613529274017
5.540451973164115,-2.375103813958316,0.8332165404640016,2.3286581646798825
5.516700935024532,-2.2820441625054166,0.8565031221108005,2.2001976828607277
5.493880493399478,-2.1930660852526884,0.8785050989394078,2.078788568908098
5.471949832546951,-2.1075650383339473,0.8992929846284887,1.963762106187636
5.450874182163611,-2.025012904633528,0.9189306056903651,1.8545514690020963
5.430624053117276,-1.9449466699276308,0.9374761203803861,1.7506743725022478
5.411174586417999,-1.8669591884160701,0.9549828641054086,1.6517185458118455
5.392504994533839,-1.7906916647269349,0.971500049563527,1.5573295394463251
5.37459807788657,-1.7158275321441019,0.9870733449579903,1.467200457347901
5.357439802565128,-1.642087458117371,1.0017453495314692,1.3810632790417128
5.341018927983955,-1.569225253934677,1.0155559823218863,1.2986815029584102
5.325326675444608,-1.4970245047125372,1.0285427973514705,1.2198438964983933
5.310356430397483,-1.42529576888748,1.0407412363164543,1.1443591824304657
5.296103472708608,-1.3538742239591097,1.052184828140759,1.0720515259550993
5.282564730469017,-1.282617658235279,1.0629053434003102,1.0027567136536815
5.269738553886664,-1.2114047275771433,1.072932910536847,0.9363189359906282
5.257624506610893,-1.1401334123148157,1.0822960998967532,0.8725881003099629
5.246223172487745,-1.0687196231351406,1.091021980899853,0.8114176124932748
5.2355359762563936,-0.9970959162339958,1.0991361570247857,0.7526625735889901
5.225565017094054,-0.9252102876741485,1.1066627827606756,0.6961783436047813
5.216312914217312,-0.8530250249161703,1.1136245661967235,0.6418194289610446
5.207782663968151,-0.7805156000618849,1.1200427604863339,0.5894386533926933
5.199977507967532,-0.7076695946033671,1.1259371470202608,0.5388865748004377
5.192900812021498,-0.6344856495264938,1.1313260127682652,0.49001111302378036
5.186555955526233,-0.5609724375935156,1.136226123898503,0.44265735596916866
5.180946231150298,-0.487147656644361,1.1406526974581948,0.39666751412234125
5.176074754583854,-0.4130370439381456,1.1446193725994183,0.3518809962711936
5.1719443841444726,-0.33867341203799467,1.1481381825621302,0.3081345822679077
5.168557650024092,-0.26409570666180493,1.1512195283848092,0.2652626718198117
5.165916692957474,-0.18934808641824336,1.1538721551030073,0.22309759153388825
5.164023212093292,-0.11447902355764596,1.1561031310183463,0.18146994564264002
5.162878421857715,-0.03954042392125057,1.1579178304747726,0.14020899888971194
5.162483017618502,0.0354132367115179,1.1593199204636697,0.09914308283093462
5.162837149985617,0.11032576359388196,1.1603113512919792,0.05810001919568301
5.163940407621556,0.18514008577596447,1.160892351483936,0.016907555853515686
5.165791808479316,0.2597990956694588,1.161061427042471,-0.024606187740402907
5.16838979943601,0.33424649067299583,1.160815365165067,-0.06661226805034907
5.17173226434274,0.40842762206297445,1.1601492424845634,-0.10928046031328684
5.17581654056337,0.4822903559811905,1.1590564378814305,-0.15277879977959846
5.180639444123182,0.5557859506717547,1.1575286498836346,-0.19727312567455044
5.1861973036299,0.6288699531697688,1.1555559186268891,-0.24292663411139423
5.192486003161598,0.7015031174788128,1.1531266522857753,-0.28989944861234634
5.199501034336386,0.7736523449701151,1.1502276577996517,-0.3383482197455145
5.207237557786087,0.8452916463895044,1.1468441756021965,-0.3884257685410811
5.215690474249982,0.9164031235825001,1.1429599179167858,-0.4402807916689602
5.224854505485807,0.9869779679711106,1.1385571100000962,-0.49405764969332705
5.234724285165518,1.057017472076176,1.133616533503163,-0.5498962629170817
5.24529445988628,1.1265340501195804,1.1281175708739921,-0.6079321422524497
5.256559800387476,1.1955522641036376,1.1220382494514676,-0.6682965850873127
5.268515323028512,1.2641098528855883,1.1153552836005944,-0.7311170681832302
5.281156421557368,1.332258763765483,1.1080441129187621,-0.7965178712155954
5.2944790091950225,1.4000661890896742,1.1000789342066062,-0.8646209656904021
5.3084796710859194,1.4676156144224282,1.0914327245497022,-0.9355472047654262
5.323155827230144,1.5350078900158728,1.082077252502048,-1.00941785017346
5.338505906130303,1.6023623436561436,1.0719830740003133,-1.0863564732916224
5.3545295295668645,1.6698179605119907,1.061119509267397,-1.1664912688175455
5.371227709171984,1.7375346643909932,1.0494545965792217,-1.2499578219843612
5.388603055815894,1.8056947448602545,1.036955018359378,-1.3369023743375457
5.406660003264497,1.8745044860830034,1.0235859946160026,-1.4274856394420647
5.425405048125326,1.9441960660709545,1.009311138221582,-1.5218872291716712
5.444847008786036,2.015029809513375,0.9940922659298653,-1.6203107641592003
5.46499730688117,2.0872968936157936,0.9778891582882733,-1.7229897592405155
5.4858702758173274,2.1613226246643715,0.9606592606958682,-1.8301943968902992
5.507483502063971,2.2374704234374456,0.9423573167269652,-1.9422393290735456
5.5298582062983455,2.3161466799490347,0.9229349234362297,-2.0594926804764753
5.553019673097836,2.397806661530083,0.902339996631465,-2.182386462612316
5.5769977397131365,2.4829616808260795,0.8805161320053418,-2.3114286458239137
5.601827356521397,2.5721877472711503,0.8574018455471027,-2.4472171681904484
5.627549233994109,2.6661359275551604,0.8329296738651982,-2.5904561736447578
5.65421059326966,2.7655446091903446,0.8070251121287506,-2.741974740814995
5.681866039361563,2.8712537617200105,0.7796053647206007,-2.902748241149874
5.710578576978763,2.9842210573306005,0.7505778823091019,-3.0739221598750626
5.740420787552069,3.1055392258847485,0.7198386607103513,-3.256837559230869
5.771476179810917,3.236453055649385,0.6872702851180426,-3.4530560511594666
5.803840710367411,3.3783725999699423,0.6527397246064479,-3.6643796063587026
5.83762443636711,3.5328756620580184,0.6160959285428609,-3.892855714854136
5.872953192987691,3.7016861525079507,0.5771673713943195,-4.1407494435219405
5.90997005451277,3.886603072288921,0.5357598769591001,-4.410447488081533
5.948836085235659,4.089333723587316,0.4916554020782848,-4.704229862200717
5.989729422471533,4.311148516392885,0.44461310345627764,-5.023794278487182
6.032840907635462,4.552217632304472,0.3943751606714058,-5.369338334056434
6.078363083958507,4.8104158628681,0.3406817773308415,-5.737900696730108
6.1264672425871884,5.079338473922373,0.2833027703635404,-6.120600366854986
6.177260627326413,5.345432634332255,0.22209676669499054,-6.498636790576798
6.230714953669735,5.584939356779125,0.15711039878922256,-6.839016290637737
6.286564347237526,5.763280741324685,0.0887202358828452,-7.093682770940229
6.344197154650773,5.841800407431841,0.0177834081734429,-7.208911885708119
6.402615158725092,5.794486741547039,-0.05430571068363829,-7.148637286364283
6.460560026140562,5.625441215755456,-0.1257920835472811,-6.918776673782965
6.516814438298116,5.368908721526992,-0.19497985028511078,-6.567171955590915
6.570503525513386,5.069734750282722,-0.26065156984101995,-6.156273474576972
6.621200873016213,4.763902512710004,-0.3222143045867897,-5.7360673550888475
6.668839898143313,4.472335520748293,-0.37957497813767815,-5.335552711233402
6.713563253350796,4.204032841838556,-0.4329305052500122,-4.967182149299403
6.755603581769182,3.9610634923242767,-0.48260232674300624,-4.63383464919859
6.7952142166924245,3.7421942323224755,-0.5289406732349922,-4.333855425584759
6.8326361590156495,3.5449187858986098,-0.5722792274908397,-4.06386301486542
6.8680853468746355,3.3664428430908764,-0.6129178576394939,-3.820105155672058
6.901749775305544,3.204109018046932,-0.6511189091962145,-3.5990395250049483
6.933790865486014,3.055549977304652,-0.687109304446264,-3.3975398531210437
6.96434636525906,2.9187189474334247,-0.7210847029774744,-3.212933937579928
6.9935335547333946,2.7918697242833534,-0.7532140423532737,-3.0429729597924
7.021452251976228,2.6735194602505747,-0.7836437719511977,-2.885777731991412
7.048187446578734,2.5624088129204816,-0.8125015492711118,-2.7397817265524087
7.073811534707939,2.457465303059126,-0.8398993665366359,-2.603678750460401
7.098386187738531,2.3577717689188376,-0.8659361540412399,-2.476377725898661
7.1219639054277195,2.262540091634103,-0.8906999313002265,-2.3569647267955225
7.14458930634406,2.1710896951936505,-0.9142695785681817,-2.244671533810096
7.166300203295997,2.0828301219595327,-0.9367162939062826,-2.138849719893134
7.1871285045155915,1.9972469824592767,-0.958104791105214,-2.0389492974213845
7.207100974340184,1.9138906521296501,-0.9784942840794278,-1.944501076766901
7.22623988086148,1.832367182242064,-0.9979392948470969,-1.8551020295892455
7.244563552683901,1.7523309840141974,-1.0164903151429894,-1.7704030865953775
7.2620868625240425,1.6734789254391231,-1.034194346008943,-1.690098917655368
7.278821651778434,1.5955455478192855,-1.0510953351854968,-1.6139193395974991
7.2947771072566265,1.5182991642973391,-1.0672345285814717,-1.5416220750200513
7.3099600988996,1.4415386476764789,-1.0826507493316722,-1.4729866466052268
7.324375485376365,1.3650907514854695,-1.0973806157977244,-1.4078092384788126
7.338026392891219,1.2888078383212407,-1.1114587081825125,-1.3458983917092047
7.350914471274431,1.212565914427111,-1.1249176920996045,-1.287071427343743
7.363040130418702,1.1362628903427368,-1.137788406373042,-1.231151509376485
7.3744027593221295,1.059817005107179,-1.1500999214668068,-1.1779652733781039
7.385000929373201,0.9831653664845228,-1.1618795742005879,-1.12734095559742
7.394832583038046,0.9062625724031151,-1.173152983756562,-1.0791069633556514
7.403895208762077,0.8290793895122212,-1.1839440533901184,-1.0330908315025107
7.412186002657199,0.7516014736329834,-1.1942749617051436,-0.9891185124205485
7.419702017393529,0.6738281240326318,-1.204166146829349,-0.9470139492220525
