th1 (rad),w1 (rad/s),th2 (rad),w2 (rad/s),a1 (rad/s^2),a2 (rad/s^2)
5.709606009347718,1.3556351459406397,3.5207443255864384,-2.7784367717484644,4.39482081348943,7.671684856965878
5.723162360807125,1.399583354075534,3.492959957868954,-2.7017199231788056,4.713301617028619,7.808751576327909
5.73715819434788,1.4467163702458201,3.4659427586371656,-2.6236324074155264,5.0232813886180745,7.9611270132099365
5.7516253580503385,1.4969491841320008,3.43970643456301,-2.544021137283427,5.322850152776922,8.125082515392078
5.766594849891659,1.55017768565977,3.4142662231901757,-2.4627703121295066,5.609507598788418,8.296137454428672
5.782096626748256,1.6062727616476542,3.3896385200688806,-2.37980893758522,5.880111529658389,8.468948368338305
5.798159354364732,1.6650738769442381,3.3658404306930283,-2.2951194539018367,6.130836907226692,8.637212645742721
5.814810093134175,1.726382246016505,3.34288923615401,-2.2087473274444096,6.3571529519516945,8.793597749928736
5.832073915594339,1.789953775536022,3.320801762879566,-2.1208113499451224,6.553827142052355,8.929709470139347
5.849973453349699,1.8554920469565455,3.299593649380115,-2.031514255243729,6.714965966386373,9.036114708726855
5.868528373819265,1.9226417066204091,3.2792785068276773,-1.9411531081564604,6.834102579836153,9.10243533940424
5.887754790885469,1.9909827324187706,3.2598669757461125,-1.850128754762418,6.904340699993631,9.117529073460254
5.907664618209657,2.060026139418707,3.2413656881984885,-1.7589534640278153,6.918561788412628,9.069770395143786
5.928264879603844,2.129211757302833,3.22377615355821,-1.6682557600763774,6.869698496367408,8.947438935769398
5.949556997176873,2.1979087422665073,3.2070935959574465,-1.5787813707186835,6.751071456050664,8.739213905380582
5.9715360845995376,2.265419456827014,3.1913057822502595,-1.4913892316648778,6.556779026854421,8.434761640871937
5.994190279167808,2.330987247095558,3.1763918899336105,-1.4070416152561585,6.28212123773515,8.025389859654686
6.017500151638763,2.3938084594729094,3.162321473781049,-1.3267877166596116,5.9240309855524815,7.50472842101746
6.041438236233492,2.453048769328434,3.149053596614453,-1.251740432449437,5.481478930578022,6.869384445386251
6.065968723926776,2.5078635586342144,3.1365361922899586,-1.1830465879955745,4.955814894319935,6.119511897849411
6.0910473595131185,2.5574217075774137,3.124705726410003,-1.1218514690170804,4.351009048382213,5.259234301040745
6.1166215765888925,2.600931798061236,3.113487211719832,-1.069259126006673,3.673761316146913,4.2968653785631075
6.142630894569505,2.637669411222705,3.102794620459765,-1.026290472221042,2.9334569072875203,3.2448861857224984
6.169007588681732,2.66700398029558,3.0925317157375547,-0.993841610363817,2.1419586699659177,2.119657339609703
6.195677628484688,2.6884235669952394,3.0825932996339165,-0.97264503696772,1.3132412932341473,0.9408688574271429
6.222561864154641,2.701555979927581,3.0728668492642393,-0.9632363483934485,0.46288644261874984,-0.26924523021961755
6.249577423953917,2.706184844353768,3.063234485780305,-0.9659288006956447,-0.39252999962926327,-1.4868779759746804
6.276639272397454,2.7022595443574757,3.0535751977733483,-0.9807975804553914,-1.2361184532072353,-2.6877392912899998
6.303661867841029,2.6898983598254036,3.0437672219687943,-1.0076749733682915,-2.0513785194509015,-3.8481863713751023
6.330560851439283,2.6693845746308944,3.0336904722351115,-1.0461568370820424,-2.8228773790536867,-4.94631308493259
6.357254697185592,2.6411558008403575,3.023228903864291,-1.0956199679313683,-3.5368590866244585,-5.962920444699533
6.3836662551939956,2.605787209974113,3.0122727041849773,-1.1552491723783636,-4.181745778108222,-6.882301086448428
6.409724127293737,2.5639697521930307,3.000720212461194,-1.2240721832428478,-4.748500533598589,-7.692787560252825
6.435363824815667,2.516484746857045,2.9884794906287655,-1.301000058845376,-5.2308329481283495,-8.387035681017172
6.460528672284237,2.464176417375761,2.975469490040312,-1.3848704156555478,-5.625241522028297,-8.96203809585882
6.485170436457995,2.4079240021554784,2.961620785883756,-1.474490796614136,-5.930900556601063,-9.41888698836669
6.50924967647955,2.348614996589468,2.946875877917615,-1.5686796664978029,-6.149411794745725,-9.762325630283401
6.532735826445445,2.2871208786420105,2.931189081252637,-1.666302922800637,-6.284451011944082,-10.000143772744579
6.555607035231866,2.2242763685225695,2.9145260520246303,-1.7663043605280828,-6.341345895314599,-10.14247992637411
6.577849798917091,2.1608629095694236,2.8968630084193494,-1.867729159791824,-6.326623231334225,-10.201093900403512
6.5994584280127855,2.0975966772560812,2.8781857168214313,-1.969740098795859,-6.247560812233689,-10.18866633225782
6.620434394785346,2.0351210691337442,2.8584883158334726,-2.0716267621184374,-6.111773424950601,-10.118170163883667
6.640785605476683,1.9740033348842383,2.837772048212288,-2.172808463757274,-5.926854118964416,-10.002344501429874
6.660525638825526,1.9147347936945942,2.816043963574715,-2.272831908771573,-5.700083103006656,-9.853286442083597
6.679672986762472,1.8577339626645277,2.7933156444869995,-2.371364773192409,-5.438208364390837,-9.68216323838793
6.698250326389117,1.8033518790206193,2.7696019967550756,-2.4681864055762883,-5.147295333492197,-9.499036865307641
6.716283845179324,1.7518789256856973,2.744920132699313,-2.5631767742293645,-4.832638080569579,-9.312786174581353
6.733802634436181,1.7035525448800015,2.7192883649570194,-2.656304635975178,-4.498721681309363,-9.131108246127875
6.750838159884981,1.658565328066908,2.6927253185972675,-2.7476157184364567,-4.149224278124633,-8.960579733964527
6.7674238131656494,1.6170730852856616,2.665249161412903,-2.837221515776102,-3.7870475931913052,-8.80676020864536
6.783594544018506,1.5792026093537486,2.636876946255142,-2.9252891178625555,-3.4143657698043492,-8.674321955746903
6.799386570112043,1.5450589516557052,2.607624055076516,-3.0120323374200244,-3.0326840235567967,-8.567193739013602
6.8148371596286,1.5147321114201373,2.5775037317023157,-3.0977042748101606,-2.642900351426189,-8.488709176253707
6.829984480742802,1.4883031079058755,2.546526688954214,-3.182591366572698,-2.2453652514085203,-8.441753273622895
6.84486751182186,1.4658494553917902,2.514700775288487,-3.267008899308927,-1.839935916746021,-8.42890313385565
6.859526006375778,1.44745009622433,2.482030686295398,-3.3512979306474837,-1.4260226316754827,-8.45256082063111
6.874000507338021,1.4331898699075751,2.448517706988923,-3.435823538853795,-1.0026261111013637,-8.515077819499673
6.8883324060370965,1.4231636087965616,2.4141594716003847,-3.520974317048792,-0.5683653358500035,-8.618871515181318
6.9025640421250625,1.4174799554380615,2.378949728429897,-3.607163032200605,-0.1214961087223286,-8.766534639159289
6.916738841679443,1.4162649943508383,2.342878098107891,-3.6948283785921983,0.3400788089917943,-8.960938741439705
6.930901491622952,1.4196657824407561,2.305929814321969,-3.784437766006595,0.8188063975726314,-9.205332368620162
6.945098149447359,1.4278538464164825,2.2680854366619028,-3.876491089692797,1.3174843449831266,-9.50343366943621
6.959376687911524,1.4410286898663138,2.2293205257649746,-3.971525426387159,1.8392622034569472,-9.859515356180134
6.973786974810187,1.4594213119008832,2.189605271501103,-4.07012057994896,2.387636255787851,-10.278476887985944
6.988381187929195,1.4832976744587618,2.1489040657016134,-4.172905348828819,2.9664277092096465,-10.765893663300496
7.003214164673783,1.5129619515508583,2.1071750122133253,-4.280564285461824,3.5797274934021535,-11.328024674560606
7.018343784189291,1.54875922648488,2.064369369358707,-4.39384453220743,4.231780653917467,-11.971746461976958
7.03383137645414,1.5910770330240547,2.0204309240366327,-4.5135619968272,4.926766713140265,-12.704359033608956
7.04974214678438,1.6403447001554574,1.9752953040683607,-4.640605587163289,5.6684056629975075,-13.53317349492122
7.066145593785935,1.6970287567854325,1.928889248196728,-4.775937322112502,6.459276700044061,-14.464733393110464
7.083115881353789,1.7616215237858732,1.881129874975603,-4.920584656043607,7.299669990438819,-15.503430292768824
7.100732096591648,1.8346182236902615,1.8319240284151668,-5.075618958971295,8.185689444612784,-16.649132683177093
7.1190782788285505,1.9164751181363893,1.781167838825454,-5.242110285803066,9.106174863546169,-17.893238228065545
7.138243030009915,2.007536866771851,1.7287467359674233,-5.421042668083722,10.037811696648502,-19.212275496355456
7.1583183986776335,2.107914983738336,1.6745363092865861,-5.613165423047276,10.937579273453007,-20.55786380356765
7.179397548515017,2.217290776472866,1.6184046550561133,-5.818744061082953,11.731594285931436,-21.841675159629766
7.201570456279746,2.3346067193321804,1.5602172144452837,-6.03716081267925,12.299838554916404,-22.91457714106014
7.224916523473068,2.4576051048813445,1.4998456063184913,-6.266306584089851,12.458154478110792,-23.541653879996186
7.249492574521882,2.5821866496624524,1.4371825404775929,-6.501723122889813,11.943961564962493,-23.381677302000163
7.275314441018506,2.7016262653120773,1.3721653092486947,-6.735539895909815,10.422284726461013,-21.993489972081914
7.302330703671627,2.8058491125766873,1.3048099102895967,-6.955474795630634,7.542196459070278,-18.910429463991637
7.3303891947973945,2.88127107716739,1.2352551623332904,-7.14457909027055,3.0758911018390305,-13.8271050895384
7.359201905569068,2.9120299881857803,1.1638093714305848,-7.282850141165935,-2.8713126433337517,-6.882778586361016
7.388322205450926,2.883316861752443,1.0909808700189254,-7.351677927029545,-9.701383277461364,1.1247084532311302
7.41715537406845,2.786303028977829,1.0174640907486299,-7.340430842497234,-16.416316986840762,8.869850738869252
7.445018404358229,2.6221398591094216,0.9440597823236575,-7.251732335108541,-22.0181590844161,15.046160804165519
7.471239802949323,2.4019582682652607,0.8715424589725721,-7.101270727066886,-25.943325878814072,18.950225441999955
7.495259385631975,2.14252500947712,0.8005297517019032,-6.911768472646886,-28.188427918836812,20.637386345861017
7.5166846357267465,1.8606407302887518,0.7314120669754344,-6.705394609188276,-29.11373149470511,20.640987258449584
7.535291043029634,1.5695034153417007,0.6643581208835516,-6.49898473660378,-29.172099796254855,19.600444422146232
7.550986077183051,1.277782417379152,0.5993682735175139,-6.302980292382317,-28.743669246836117,18.041370360826967
7.563763901356842,0.990345724910791,0.5363384705936907,-6.122566588774047,-28.089043767559073,16.31905551986482
7.573667358605951,0.7094552872352002,0.4751128047059502,-5.959376033575399,-27.364418490091477,14.644546757974725
7.5807619114783025,0.43581110233428544,0.4155190443701962,-5.812930565995652,-26.652891404599163,13.13033756594036
7.585120022501646,0.16928218828829378,0.3573897387102397,-5.681627190336248,-25.991983980091142,11.829087012215007
7.586812844384529,-0.09063765151261766,0.30057346680687724,-5.5633363202140975,-25.392826702388284,10.75994146305588
7.585906467869402,-0.3445659185365005,0.24494010360473628,-5.455736905583539,-24.852173527040435,9.924569809876777
7.582460808684037,-0.5930876538069049,0.1903827345489009,-5.356491207484771,-24.359503127378694,9.316276388476082
7.576529932145968,-0.8366826850806919,0.1368178224740532,-5.26332844360001,-23.901080872387872,8.924882098947721
7.568163105295161,-1.0756934938045706,0.08418453803805309,-5.174079622610533,-23.462243795928686,8.739152232371646
7.557406170357115,-1.3103159317638575,0.032443741811947764,-5.086688100286817,-23.028684372444868,8.747851775664381
7.544303011039477,-1.5406027754883063,-0.018423139190920403,-4.999209582530173,-22.587186808530593,8.940058178773489
7.528896983284594,-1.7664746435736123,-0.06841523501622213,-4.909809000742438,-22.126072213868078,9.305091820914932
7.5112322368488575,-1.9877353657122931,-0.1175133250236465,-4.816758082533289,-21.635492463551724,9.83226941881073
7.491354883191734,-2.2040902903478106,-0.16568090584897938,-4.718435388345181,-21.107644922341034,10.510598594015768
7.469313980288256,-2.415166739571221,-0.2128652597324312,-4.613329402405023,-20.536941338512204,11.328483508369173
7.445162312892545,-2.620536152956343,-0.25899855375648145,-4.500044567321331,-19.920142206887743,12.273484570831211
7.418956951362981,-2.8197375750252207,-0.30399899942969477,-4.3773097216130195,-19.256455914463416,13.332159743268681
7.390759575612729,-3.012302134169855,-0.347772096645825,-4.2439881241803326,-18.547596159930034,14.49000528596248
7.36063655427103,-3.1977780957691553,-0.3902119778876283,-4.099088071320708,-17.79778929308524,15.731506764182317
7.328658773313339,-3.375755988700008,-0.43120285860083535,-3.9417730036788843,-17.013724068553678,17.04030513454315
7.294901213426338,-3.5458932293855447,-0.4706205886376242,-3.771369952333453,-16.204439035060464,18.399476964209736
7.259442281132483,-3.7079376197361493,-0.5083342881609587,-3.5873751826913556,-15.381146798647777,19.791922052189424
7.222362904935121,-3.861749087722627,-0.5442080399878723,-3.3894559621694613,-14.55699921729934,21.20084598542394
7.183745414057895,-4.007319079895621,-0.5781025996095669,-3.1774475023152218,-13.746802751733005,22.610319733659985
7.143672223258939,-4.1447871074129505,-0.6098770746327191,-2.951344304978622,-12.966698260815468,24.005893635923854
7.102224352184809,-4.274454090021106,-0.6393905176825053,-2.7112853686193836,-12.233824022387196,25.37523946318077
7.059479811284598,-4.396792330244978,-0.6665033713686992,-2.457532973987576,-11.565984185223423,26.708792011465093
7.015511887982148,-4.512452172097212,-0.6910787011085749,-2.190445053872925,-10.98134667659282,28.000361071292993
6.970387366261177,-4.62226563886314,-0.7129831516473042,-1.9104414431599952,-10.498194190777154,29.247685466811042
6.924164709872545,-4.727247580770912,-0.7320875660789041,-1.6179645884918847,-10.134748507803044,30.452902384078474
6.876892234064836,-4.828595065848942,-0.748267211963823,-1.3134355646511,-9.909080955483436,31.622905630880524
6.828606283406346,-4.9276858754037764,-0.761401567610334,-0.9972065083422947,-9.839108545199565,32.76956239230127
6.779329424652309,-5.0260769608557725,-0.7713736326937569,-0.6695108844192821,-9.942652935621627,33.909743418549674
6.729068655043751,-5.1255034902119885,-0.7780687415379497,-0.3304134502337853,-10.23750176916703,35.06508586148603
6.677813620141631,-5.227878507903659,-0.7813728760402876,0.020237408381075017,-10.741347436734351,36.26133275178894
6.625534835062594,-5.335291982271003,-0.7811705019564769,0.38285073589896446,-11.471365164196836,37.526945975018215
6.572181915239884,-5.450005633912971,-0.7773419945974872,0.7581201956491466,-12.442990626091428,38.890413502729224
6.517681858900755,-5.574435540173885,-0.7697607926409957,1.1470243306764387,-13.667096714055019,40.37516789668703
6.461937503499016,-5.711106507314436,-0.7582905493342313,1.550776009643309,-15.144132924991471,41.99014000333119
6.4048264384258715,-5.86254783656435,-0.7427827892377983,1.9706774096766209,-16.852710118323404,43.71245759687856
6.346200960060228,-6.031074937747585,-0.723076015141032,2.4078019856454063,-18.728428273422626,45.45645111957761
6.285890210682752,-6.218359220481811,-0.698997995284578,2.862366496841182,-20.626627580117066,47.02021451800335
6.223706618477935,-6.424625496282982,-0.6703743303161661,3.3325686420212155,-22.261826119807665,47.999831355982636
6.159460363515104,-6.647243757481058,-0.637048643895954,3.8125669555810417,-23.12304280870293,47.67074815601319
6.092987925940294,-6.878474185568087,-0.5989229743401435,4.289274437141174,-22.394257102076363,44.87863153648634
6.024203184084613,-7.10241675658885,-0.5560302299687317,4.738060752506037,-18.98897405235142,38.094964742717764
5.953179016518725,-7.292306497112365,-0.5086496224436714,5.119010399933215,-11.92413811914842,25.956355834972616
5.880255951547601,-7.411547878303849,-0.45745951844433924,5.378573958282941,-1.1991119462505064,8.519612642995433
5.806140472764562,-7.423538997766354,-0.40367377886150985,5.463770084712896,11.316835899893002,-11.476727237287069
5.7319050827868985,-7.310370638767424,-0.3490360780143809,5.349002812340025,22.344406792099804,-29.272169756910813
5.658801376399224,-7.086926570846425,-0.29554604989098066,5.056281114770917,29.30713654273125,-41.10211926634492
5.58793211069076,-6.793855205419113,-0.2449832387432715,4.645259922107467,31.85794374841469,-46.39345073129502
5.5199935586365685,-6.475275767934965,-0.19853063952219682,4.181325414794517,31.270959952691193,-46.92147660314384
5.455240800957219,-6.162566168408054,-0.15671738537425164,3.712110648763079,29.062576145801614,-44.84799490446
5.393615139273138,-5.871940406950038,-0.11959627888662086,3.2636306997184787,26.29166903855812,-41.70817290107645
5.334895735203638,-5.609023716564456,-0.08695997188943608,2.846548970707714,23.524535980102097,-38.34330428107731
5.278805498037993,-5.373778356763435,-0.058494482182358934,2.463115927896941,21.00780761776399,-35.137261709381235
5.225067714470359,-5.163700280585796,-0.033863322903389524,2.1117433108031283,18.820367339402196,-32.22942832624221
5.1734307116645,-4.975496607191774,-0.012745889795358241,1.7894490275407062,16.964117093272417,-29.64379597728882
5.123675745592583,-4.8058554362590495,0.005148600480048823,1.4930110677678181,15.41031443110423,-27.35596973962832
5.075617191229992,-4.651752291948007,0.020078711157727004,1.2194513703715348,14.12115919901336,-25.325137993039228
5.029099668310512,-4.510540699957874,0.03227322486144235,0.9661999904411426,13.059037832057992,-23.50832739997371
4.983994261310934,-4.379950321637294,0.041935224765853776,0.7311167164414055,12.189982275385171,-21.866194351335167
4.940194758094561,-4.258050498883442,0.049246391930267835,0.5124547729280539,11.484556353809422,-20.364937016252846
4.8976142531057265,-4.143204935345348,0.054370939659548374,0.30880540276552537,10.917681087204706,-18.976515047270098
4.856182203752273,-4.0340281244733,0.05745899368720363,0.11904025229282439,10.46808750235385,-17.67819325945917
4.81584192250754,-3.9293472494497617,0.05864939621013187,-0.05774168030176732,10.117697539713477,-16.451867542824154
4.776548450013043,-3.828170274052627,0.0580719794071142,-0.22226035573000885,9.851054143462731,-15.283369517580791
4.738266747272516,-3.7296597326179994,0.05584937584981411,-0.37509405090581677,9.654840451178313,-14.161825983879666
4.700970149946336,-3.6331113281062164,0.05209843534075594,-0.5167123107446134,9.51749275257607,-13.079095581299674
4.664639036665274,-3.5379364005804557,0.046931312233309805,-0.6475032665576101,9.428897831086571,-12.029282717093016
4.629259672659469,-3.44364742226959,0.040456279567733705,-0.7677960937285403,9.380160825207204,-11.008320812986735
4.594823198436773,-3.349845814017518,0.032778318630448305,-0.8778793018584077,9.36342943304726,-10.013615211345275
4.561324740296597,-3.2562115196870454,0.023999525611864227,-0.9780154539718604,9.371761638563726,-9.043736881255748
4.528762625099727,-3.162493903301408,0.014219371072145623,-1.0684528227844179,9.399026037683145,-8.098159628085561
4.497137686066713,-3.0685036429245764,0.003534842844301443,-1.1494344190652734,9.439825799401275,-7.177035076074689
4.466452649637468,-2.9741053849305636,-0.007959501346351292,-1.2212047698260204,9.489439113463186,-6.28100097474072
4.436711595788162,-2.879210993795932,-0.0201715490446115,-1.2840147795734276,9.543770582530932,-5.411019310478427
4.407919485850202,-2.7837732879706225,-0.03301169684034577,-1.3381249726782118,9.599309396795642,-4.568241317459577
4.380081752970496,-2.687780194002666,-0.04639294656712789,-1.3838073858528077,9.65309128816984,-3.7538968466640825
4.353203951030469,-2.5912492811209678,-0.060231020425655965,-1.4213463543194484,9.702662213176442,-2.969205745173536
4.32729145821926,-2.4942226589892034,-0.07444448396885045,-1.4510384117711839,9.746042475615118,-2.2153089884105195
4.302349231629368,-2.3967622342330523,-0.08895486808656229,-1.473191501655289,9.78169059118406,-1.4932173504625847
4.278381609287037,-2.298945328321212,-0.10368678310311519,-1.488123675159915,9.80846663699507,-0.8037754311384974
