th1 (rad),w1 (rad/s),th2 (rad),w2 (rad/s),a1 (rad/s^2),a2 (rad/s^2)
5.058829457997525,1.7756271887426371,4.998267764099886,2.110278539117143,8.559126548536183,1.0496494570784771
5.076585729884951,1.861218454227999,5.019370549491057,2.1207750336879276,8.505099598451626,1.048760872467112
5.0951979144272315,1.9462694502125153,5.040578299827937,2.1312626424125987,8.438608648323617,1.0577198032087916
5.1146606089293565,2.0306555366957513,5.061890926252063,2.141839840444687,8.358286270070044,1.0783716190979793
5.134967164296314,2.1142383993964518,5.0833093246565095,2.1526235566356666,8.262724995164609,1.1126478663196069
5.156109548290279,2.196865649348098,5.104835560222866,2.163750035298863,8.150498081736526,1.1625306410237932
5.17807820478376,2.278370630165463,5.126473060575854,2.175375341709101,8.0201837504846,1.2300103496145804
5.200861911085415,2.3585724676703093,5.148226813992945,2.1876754452052465,7.870392996751461,1.317036668153815
5.224447635762118,2.4372763976378238,5.170103568444998,2.2008458118867846,7.699800931995617,1.4254628238769624
5.248820399738497,2.51427440695778,5.192112026563866,2.2151004401255543,7.507181401064375,1.5569837275976997
5.273963143808075,2.5893462209684235,5.214263030965121,2.2306702774015315,7.291444365420487,1.7130689799352286
5.299856606017759,2.6622606646226283,5.236569733739136,2.2478009672008836,7.05167524734235,1.8948923376205733
5.326479212663985,2.732777417096052,5.259047743411145,2.2667498905770893,6.787175115350982,2.103259824547396
5.353806986834946,2.800649168249562,5.281715242316916,2.2877824888225633,6.497500285255611,2.3385392558065736
5.381813478517442,2.8656241711021178,5.304593067205142,2.311167881380629,6.1824996511740995,2.60059444731779
5.410469720228463,2.9274491676138585,5.327704746018948,2.337173825853807,5.842347889098145,2.888727734610689
5.439744211904602,2.98587264650484,5.351076484277486,2.366061103199914,5.477572634870394,3.2016345458561886
5.46960293836965,3.040648372853544,5.374737095309484,2.398077448658476,5.089073865041751,3.5373736000568816
5.500009422098185,3.0915391115039617,5.398717869796069,2.4334511846590448,4.678134024453627,3.893355787910398
5.5309248132132245,3.138320451748498,5.42305238164266,2.4723847425381487,4.246417947551836,4.2663539325430415
5.562308017730709,3.1807846312240162,5.447776229068041,2.515048281863579,3.7959622825096453,4.652534457645613
5.59411586404295,3.2187442540491125,5.472926711886677,2.561573626440035,3.3291548902794537,5.047510597500882
5.6263033065834405,3.252035802951907,5.498542448151078,2.612048732415044,2.8487054720536453,5.446415295893047
5.658823664612959,3.2805228576724432,5.524662935475228,2.666512885373974,2.3576093810188907,5.843990516235677
5.691628893189684,3.304098951482632,5.551328064328968,2.724952790536331,1.859107100313148,6.234688487274286
5.72466988270451,3.3226900224857636,5.578577592234331,2.787299675409074,1.3566421373630886,6.612779582545802
5.757896782929367,3.3362564438593947,5.606450588988422,2.8534274712345318,0.8538200443481634,6.972461180553696
5.791259347367961,3.344794644302876,5.634984863700767,2.9231520830400686,0.35437091411319677,7.307962021387844
5.82470729381099,3.3483383534440083,5.6642163845311675,2.996231703253947,-0.13788294934311382,7.6136372458976185
5.85819067734543,3.346959523950577,5.694178701563707,3.072368075712923,-0.6190533607545637,7.884050400111762
5.891660272584936,3.3407689903430313,5.724902382320836,3.151208579714041,-1.0852067670993075,8.114040093981723
5.925067962488366,3.329916922672038,5.756414468117976,3.232348980653858,-1.532380171849382,8.298770583489116
5.958367131715086,3.3145931209535444,5.788737957924514,3.3153366864887492,-1.9565946827106142,8.433767163472286
5.991513062924621,3.2950271741264383,5.8218913247894015,3.3996743581234723,-2.353869743843453,8.514938796407684
6.024463334665886,3.271488476688004,5.8558880683706365,3.484823746087549,-2.7202417633280476,8.538591764299506
6.057178219432766,3.2442860590547236,5.890736305831512,3.570209663730544,-3.051791252003844,8.501439241851191
6.089621080023313,3.2137681465346852,5.9264384024688175,3.655224056149056,-3.3446827117746616,8.400612484332136
6.1217587614886595,3.1803213194169384,5.962990643030308,3.7392301809923776,-3.5952213072827006,8.233679733329339
6.1535619746828285,3.1443691063441115,6.000382944840231,3.821566978325671,-3.7999297685493905,7.998678879297155
6.18500566574627,3.106369808658618,6.038598614623488,3.9015537671186427,-3.955647930553285,7.694169266546076
6.216069363832856,3.066813329353085,6.077614152294674,3.9784954597841033,-4.05965573430097,7.319306648197933
6.246737497126388,3.026216772010075,6.117399106892515,4.051688526266083,-4.10981831707409,6.8739430630747425
6.276999664846488,2.985118588839334,6.157915992155176,4.1204279568968305,-4.104748976804205,6.358750230537812
6.3068508507348815,2.944071099071292,6.199120271724144,4.184015459202208,-4.043982373466898,5.775360977414269
6.336291561725594,2.903631275336623,6.240960426316167,4.241769068976351,-3.928146551514195,5.126518454845173
6.36532787447896,2.8643498098214812,6.28337811700593,4.293034253524803,-3.759118660208527,4.416217971451825
6.393971372577175,2.826758623219396,6.3263084595411785,4.337196433239321,-3.540146263198771,3.64982195836892
6.422238958809369,2.7913571605874083,6.369680423873572,4.37369465282301,-3.2759146867709164,2.834125930443548
6.450152530415243,2.7585980137196993,6.413417370401802,4.402035912127446,-2.972541814255146,1.9773534311653773
6.477738510552441,2.728872595577148,6.457437729523076,4.4218094464391,-2.637485756495607,1.0890617531209965
6.505027236508212,2.702497738012192,6.501655823987467,4.43270006397031,-2.2793581122985076,0.17994805609573655
6.532052213888334,2.679704156889207,6.5459828246271705,4.434499544531267,-1.9076455688060947,-0.7384431684016759
6.558849255457226,2.660627701201146,6.590327820072483,4.42711511284725,-1.532354071279411,-1.6540970496686513
6.585455532469238,2.645304160488352,6.634598971200956,4.410574142350564,-1.1636007567316473,-2.5549625872410235
6.611908574074121,2.6336681529210355,6.678704712624461,4.385024516478153,-0.8111870996674264,-3.4294072831438323
6.638245255603332,2.625556281924361,6.722554957789243,4.3507304436467145,-0.48419040664090846,-4.2666508167831205
6.664500818422575,2.620714377857952,6.76606226222571,4.308063935478883,-0.19060896784846387,-5.057138531679074
6.690707962201155,2.6188082881794674,6.809142901580499,4.257492550162093,0.06291089691514203,-5.79282380240375
6.71689604508295,2.619437397148619,6.85171782708212,4.1995643121380555,0.2712485258461749,-6.467341053559891
6.743090419054436,2.6221498824070806,6.8937134702035,4.134890901602456,0.4308784204338068,-7.076065617482315
6.769311917878507,2.6264586666114185,6.9350623792195245,4.064130245427633,0.5398423647996681,-7.616069926365268
6.795576504544621,2.631857090259415,6.975703681673801,3.987969546163981,0.5976400535015741,-8.085995534254751
6.821895075447215,2.637833490794431,7.015583377135441,3.9071095908214333,0.605059576723678,-8.485866013479711
6.8482734103551595,2.643884086561668,7.054654473043655,3.822250930686636,0.5639708059730915,-8.816866853008547
6.874712251220776,2.6495237946213988,7.092876982350521,3.7340822621565506,0.4771032672462238,-9.081115956124934
6.90120748916699,2.654294827293861,7.130217804972087,3.643271102595301,0.3478264958813264,-9.281443496835072
6.927750437439928,2.6577730922526746,7.1666505159980405,3.5504566676269502,0.17994622833873578,-9.421194096661123
6.954328168362455,2.659572554536062,7.20215508267431,3.456244726660339,-0.022474972446068168,-9.504058628031043
6.980923893907816,2.6593478048116013,7.236717529940914,3.3612041403800283,-0.25526829747010965,-9.533938159975907
7.007517371955932,2.6567951218369004,7.270329571344714,3.2658647587802694,-0.5142794877242812,-9.514838978212062
7.034085323174301,2.6516523269596575,7.302988218932517,3.1707163689981486,-0.7954612650760803,-9.450795275529169
7.060601846443897,2.643697714308897,7.334695382622498,3.076208416242857,-1.0949403359913175,-9.345814867596932
7.087038823586986,2.6327483109489838,7.365457466784926,2.9827502675668875,-1.4090626937810606,-9.203842899973804
7.113366306696475,2.6186576840111733,7.3952849694605955,2.8907118385671495,-1.7344211883533405,-9.028738713887433
7.139552883536587,2.60131347212764,7.424192087846267,2.8004244514282752,-2.0678692068492808,-8.824261600005674
7.165566018257864,2.580634780059147,7.45219633236055,2.7121818354282183,-2.406523958639333,-8.59406190941885
7.191372366058455,2.5565695404727538,7.479318150714832,2.6262412163340296,-2.7477623920111105,-8.341674780963448
7.216938061463183,2.529091916552643,7.505580562878172,2.5428244685243953,-3.0892122617241613,-8.070514501982704
7.24222898062871,2.4981997939354015,7.531008807563416,2.4621193235045684,-3.4287403634114875,-7.783868199803167
7.267210978568063,2.4639123903012865,7.555630000798462,2.3842806415065367,-3.7644394797804,-7.484888142807018
7.291850102471076,2.4262679955034825,7.579472807213527,2.3094317600784664,-4.094615158879269,-7.176582407801872
7.316112782426111,2.38532184391469,7.602567124814311,2.2376659360004476,-4.4177730727441915,-6.861804047718181
7.339966000865258,2.341144113187248,7.624943784174316,2.1690478955232657,-4.732607387748224,-6.543239177517589
7.36337744199713,2.2938180393097656,7.646634263129548,2.10361550374809,-5.037990316193635,-6.223394594579961
7.386315622390228,2.2434381361478293,7.667670418167029,2.0413815578022905,-5.332962811432884,-5.904585670560158
7.408750003751706,2.1901085080335005,7.688084233745052,1.9823357010966889,-5.616726214749895,-5.588925302211959
7.430651088832041,2.1339412458860014,7.707907590756019,1.9264464480745693,-5.888634559244057,-5.27831469646038
7.451990501290902,2.0750549002935608,7.727172055236765,1.8736633011099655,-6.148187180774239,-4.974436698196706
7.472741050293838,2.013573028485818,7.745908688247865,1.8239189341279984,-6.39502127397102,-4.678752257133143
7.492876780578696,1.949622815746108,7.764147877589145,1.777131411556667,-6.628904056254312,-4.392500483162341
7.512373008736157,1.8833337751835648,7.781919191704712,1.7332064067250437,-6.849724257209166,-4.116702569737144
7.531206346487992,1.8148365326114733,7.799251255771963,1.6920393810276722,-7.057482726152346,-3.8521696841419137
7.5493547118141064,1.7442617053499498,7.816171649582239,1.6535176841862531,-7.252282038500295,-3.5995147443105506
7.566797328867606,1.6717388849649468,7.8327068264241015,1.6175225367431476,-7.434315073187374,-3.3591678351183054
7.5835147177172555,1.5973957342330731,7.848882051791533,1.5839308583919645,-7.603852621422679,-3.1313948719612723
7.599488675059586,1.5213572080188462,7.864721360375453,1.5526169096723517,-7.761230165566888,-2.916319002469466
7.614702247139775,1.4437449063631773,7.880247529472177,1.523453719647657,-7.906834031755172,-2.713944151948499
7.629139696203406,1.3646765660456257,7.895482066668653,1.496314278128172,-8.04108716894452,-2.5241800651875956
7.642786461863863,1.2842656943561805,7.910445209449935,1.471072477476296,-8.16443484001239,-2.3468681744983515
7.655629118807425,1.2026213459560566,7.925155934224698,1.4476037957313124,-8.277330528596774,-2.181807627019607
7.667655332266985,1.1198480406700888,7.939631972182011,1.4257857194611163,-8.380222370844079,-2.0287808278173363
7.678853812673686,1.036045816961648,7.953889829376622,1.4054979111829429,-8.47354041698886,-1.8875778929442235
7.689214270843302,0.9513104127917594,7.967944808488451,1.3866221322535006,-8.557685016650051,-1.7580194524562676
7.69872737497122,0.8657335626252589,7.981811029810986,1.369041937728938,-8.633016606401359,-1.6399772924184817
7.707384710597473,0.7794033965612454,7.995501449188276,1.3526421648047533,-8.699847160277352,-1.5333923736709953
7.715178744563085,0.6924049249584718,8.009027870836324,1.3373082410680432,-8.758433544083392,-1.43828981194371
7.722102793812669,0.604820589517638,8.022400953247004,1.322925342948606,-8.80897299217776,-1.3547904492119671
7.728150999707846,0.5167308595958604,8.03563020667649,1.3093774384564865,-8.851600899118672,-1.2831186923779945
7.733318308303804,0.4282148506046737,8.048723981061055,1.2965462515327064,-8.88639108553884,-1.2236063465782594
7.737600456809851,0.33935093974928526,8.061689443576382,1.2843101880669239,-8.913358654458039,-1.1766922320434796
7.740993966207344,0.2502173532047049,8.074532545457052,1.272543265746489,-8.932465497371759,-1.14291745142047
7.743496139739391,0.1608926982309873,8.087257978114517,1.2611140912322842,-8.943628435642253,-1.1229162743997883
7.745105066721701,0.07145641387456478,8.09986911902684,1.2498849284882863,-8.9467298898525,-1.1174027325490477
7.745819630860447,-0.018010885023960227,8.112367968311723,1.2387109011627957,-8.941630857633742,-1.1271531709996374
7.745639522010207,-0.10742719360029765,8.124755077323352,1.2274393694527994,-8.928185851456698,-1.1529851828999225
7.744565250074205,-0.1967090521148646,8.137029471017879,1.2159095176238002,-8.906259307631025,-1.1957335504805924
7.742598159553056,-0.2857716451911749,8.149188566194116,1.2039521821189942,-8.875742835440835,-1.2562240211569455
7.7397404431011445,-0.37452907354558324,8.161228088015307,1.1913899419074248,-8.836572543410417,-1.3352459413091058
7.735995152365689,-0.46289479897968744,8.17314198743438,1.1780374824943336,-8.788745573069741,-1.4335249332934248
7.731366204375892,-0.5507822547103849,8.184922362259323,1.1637022331613993,-8.732334905181235,-1.551696910004079
7.725858381828788,-0.6381056037621973,8.196559384590937,1.1481852640613586,-8.667501493991184,-1.6902847540841963
7.719477325791166,-0.7247806187021091,8.208041237231551,1.1312824165205166,-8.594502842907879,-1.8496789283396078
7.712229519604145,-0.8107256471311879,8.219354061396757,1.1127856272371206,-8.513697265302296,-2.0301231207238137
7.704122263132834,-0.8958626197842109,8.230481917669128,1.0924843960298825,-8.425543274157445,-2.2317057630606962
7.695163636934992,-0.9801180525257853,8.241406761629426,1.0701673383992756,-8.33059380247221,-2.45435791155612
7.685362456409734,-1.0634239905505074,8.252108435013419,1.0456237592837143,-8.229485252653266,-2.6978575653571357
7.674728216504229,-1.14571884307704,8.262564672606256,1.018645183630143,-8.122921681145877,-2.9618400628419645
7.663271028073458,-1.2269480598884988,8.272751124442557,0.9890267830017232,-8.011654714631414,-3.2458137751354803
7.651001547474573,-1.3070646070348129,8.282641392272575,0.9565686452503684,-7.896460037542252,-3.5491799533912114
7.637930901404225,-1.3860292074102354,8.29220707872508,0.9210768457164563,-7.778111463769758,-3.87125531538763
7.624070609330123,-1.463810322047933,8.301417847182243,0.88236429256258,-7.657353693117444,-4.211295801661993
7.609432506109644,-1.5403838589791075,8.310241490107869,0.84025133454596,-7.534874850640376,-4.568519901415186
7.5940286675198525,-1.6157326074855112,8.318644003453327,0.7945661355318081,-7.411279820657524,-4.942130038748203
7.577871341444998,-1.6898454056920864,8.326589664808646,0.7451448351443261,-7.287065232392096,-5.331330702501742
7.560972887388076,-1.7627160580160073,8.334041113160088,0.6918315281193086,-7.162596752877249,-5.735342270875504
7.5433457268079165,-1.8343420255447798,8.340959428441282,0.6344781054105535,-7.038089119969883,-6.153409793380236
7.5250023065524685,-1.9047229167444786,8.347304209495388,0.5729440074767511,-6.913589128552529,-6.584806316075459
7.505955077385024,-1.973858808030004,8.353033649570156,0.5070959443159966,-6.788961587357217,-7.028830644356929
7.486216489304724,-2.041748423903576,8.358104609013315,0.43680763787242727,-6.663878108025182,-7.484799710755891
7.465799005065688,-2.1083872049838277,8.36247268539204,0.36195964076486836,-6.537808481518565,-7.952035941590196
7.444715133015849,-2.173765289799013,8.36609228179969,0.2824392813489664,-6.410014343265154,-8.429850192298876
7.42297748011786,-2.2378654332316645,8.368916674613178,0.19814077942597763,-6.2795448257278865,-8.917520950217368
7.400598825785543,-2.3006608814889433,8.370898082407438,0.10896556992380395,-6.145233939877266,-9.414270593722046
7.377592216970653,-2.362113220887716,8.371987738106675,0.014822863986583487,-6.005699507281319,-9.919239559274372
7.353971084761776,-2.4221702159605294,8.37213596674654,-0.08436953160616023,-5.859343572970189,-10.431459314980291
7.329749382602171,-2.480763651690231,8.371292271430478,-0.18868412475596313,-5.70435435635593,-10.949825082085795
7.304941746085269,-2.5378071952537904,8.369405430182919,-0.2981823755768211,-5.538709934054934,-11.473069293511552
7.2795636741327305,-2.5931942945943396,8.366423606427151,-0.4129130685119366,-5.360183985744773,-11.999736837310968
7.253631731186787,-2.646796134451787,8.362294475742033,-0.5329104368850462,-5.166354063922896,-12.52816320561466
7.227163769842269,-2.698459675091016,8.356965371373182,-0.6581920689411929,-4.954612962576833,-13.05645675535626
7.2001791730913585,-2.7480058047167844,8.35038345068377,-0.7887566364947555,-4.722183850187843,-13.58248638136908
7.172699115044191,-2.795227643218663,8.342495884318822,-0.9245815003084463,-4.4661398906425465,-14.103875997307167
7.144746838612004,-2.839889042125088,8.333250069315739,-1.065620260281518,-4.183429092408724,-14.618007304073183
7.116347948190754,-2.8817233330491754,8.322593866712923,-1.2118003333222498,-3.8709050920299557,-15.122032385048568
7.087530714860262,-2.920432383969475,8.3104758633797,-1.3630206571727355,-3.5253644825260526,-15.612897686290223
7.058326391020567,-2.9556860287947355,8.296845656807973,-1.5191496340356376,-3.1435911306952717,-16.087380900565933
7.02876953073262,-2.987121940101688,8.281654160467616,-1.680023443041297,-2.72240768058787,-16.54214215909017
6.998898311331604,-3.014346016907567,8.264853926037203,-1.8454448646321988,-2.258734106603721,-16.973790727853125
6.968754851162528,-3.0369333579736044,8.24639947739088,-2.0151827719107303,-1.7496527552780918,-17.37896809336245
6.938385517582792,-3.0544298855263854,8.226247649671773,-2.1889724528443546,-1.1924788014899461,-17.754447897432723
6.907841218727528,-3.066354673541285,8.204357925143329,-2.3665169318186816,-0.584834451089004,-18.097252641709165
6.877177671992115,-3.072203018052175,8.180692755825142,-2.5474894582357734,0.07527543497147043,-18.404786438807488
6.846455641811593,-3.0714502637024603,8.155217861242784,-2.7315373226238484,0.7893893123995999,-18.67498235870872
6.815741139174568,-3.0635563705784645,8.127902488016545,-2.9182871462109357,1.5585202274597878,-18.90646213962625
6.7851055754687835,-3.047971168303867,8.098719616554435,-3.1073517676071982,2.3830967327593835,-19.0987052483264
6.754625863785745,-3.024140200976273,8.067646098878363,-3.2983388200904624,3.262918298868064,-19.25222354387907
6.7243844617759825,-2.9915110179875923,8.034662710677459,-3.490861055529253,4.197130394829324,-19.368737186889486
6.694469351596107,-2.949539714039299,7.999754100122167,-3.684548427398148,5.18422444863396,-19.451347009703962
6.664973954455713,-2.897697469552959,7.962908615848185,-3.8790618974951876,6.222067560431711,-19.50469837639926
6.635996979760184,-2.835476793948642,7.924117996873234,-4.07410888125918,7.307966021841902,-19.535131638270443
6.607642211820697,-2.762397133730223,7.883376908060642,-4.269460197641885,8.438765274714841,-19.55081459521597
6.580018240483395,-2.6780094809830746,7.840682306084223,-4.464968343594045,9.610986773316965,-19.56185276737702
6.553238145673564,-2.581899613249905,7.796032622648283,-4.660586871267815,10.820999084394455,-19.580373457701707
6.527419149541065,-2.4736896224059604,7.749426753935604,-4.856390605844831,12.065216132717026,-19.62057896678065
6.502682253317006,-2.35303746107879,7.700862847877156,-5.052596395512638,13.340309193579516,-19.69876189184324
6.479151878706218,-2.2196343691429945,7.650336883922029,-5.24958401443107,14.643410013713503,-19.833269477106423
6.456955535014788,-2.0732002690058593,7.597841043777718,-5.4479167092021346,15.972268465401612,-20.044391584218637
6.436223532324729,-1.9134775843518432,7.5433618766856965,-5.648360625044321,17.325306159407837,-20.35412316142549
