th1 (rad),w1 (rad/s),th2 (rad),w2 (rad/s)
1.8232264364281379,-2.0737654937104106,3.426860623738864,-2.354362705866781
1.8024887814910338,-2.1412487644277056,3.4033169966801964,-2.3719815314825974
1.7810762938467568,-2.2088491555256717,3.3795971813653702,-2.3944830192848245
1.7589878022915002,-2.2764154462838886,3.355652351172522,-2.4220225609643595
1.7362236478286612,-2.343787282399983,3.3314321255628783,-2.45475048101686
1.7127857750046613,-2.4107938875924813,3.30688462075271,-2.492810391282311
1.6886778361287365,-2.477252673340651,3.2819565168398865,-2.536337449122883
1.66390530939533,-2.542967755044696,3.256593142348658,-2.5854565197024377
1.638475631844883,-2.607728387414631,3.2307385771516333,-2.6402802464498514
1.6123983479707367,-2.6713073370277676,3.204335774687135,-2.700907038527497
1.585685274600459,-2.733459215723607,3.17732670430186,-2.7674189901213206
1.558350682443223,-2.793918804789544,3.1496525144006466,-2.8398797537355884
1.5304114943953275,-2.85239940664649,3.121253716863291,-2.918332398497292
1.5018875003288625,-2.9085912678294057,3.092070392878318,-3.002797294789513
1.4728015876505685,-2.9621601242627738,3.062042419930423,-3.093270078313877
1.4431799864079407,-3.0127459268590533,3.031109719147284,-3.189719759822488
1.4130525271393501,-3.059961811923895,2.9992125215490595,-3.292087061052578
1.3824529090201112,-3.1033933862285767,2.9662916509385338,-3.400283072517991
1.3514189751578254,-3.1425984002815484,2.932288820213354,-3.5141883443032396
1.31999299115501,-3.17710688455025,2.8971469367703215,-3.6336525362689143
1.2882219223095075,-3.2064218212928015,2.8608104114076323,-3.7584947683696868
1.2561577040965795,-3.230020418309141,2.8232254637239356,-3.888504824236358
1.2238574999134881,-3.247356039316966,2.784340415481572,-4.023445370810538
1.1913839395203185,-3.257860827818237,2.744105961773467,-4.163055362627627
1.1588053312421362,-3.260949036368571,2.7024754081471904,-4.307054800337323
1.1261958408784505,-3.25602104043361,2.6594048601438174,-4.455151008388631
1.0936356304741144,-3.2424679752120653,2.614853350059931,-4.607046585921684
1.0612109507219938,-3.2196768851481026,2.568782884200714,-4.762449167663102
1.0290141818705127,-3.1870362202781948,2.5211583925240832,-4.921083108457702
0.9971438196677308,-3.1439414528954917,2.471947561439506,-5.082703177130849
0.9657044051387759,-3.0898005252127168,2.4211205296681975,-5.2471103145425895
0.9348063998866487,-3.0240387780415676,2.3686494265227718,-5.414169479449048
0.904566012106233,-2.946102957886166,2.3145077317282814,-5.583829576782394
0.8751049825273713,-2.8554638632593736,2.2586694359604573,-5.756145438096637
0.8465503438947776,-2.7516171814007886,2.201107981579491,-5.931301802599595
0.8190341720807697,-2.6340820994357044,2.141794963553495,-6.109639223186011
0.7926933510864126,-2.5023973727570117,2.0806985713216353,-6.291681777943574
0.7676693773588424,-2.3561147355179415,2.0177817535421996,-6.478166365942634
0.744108230003663,-2.1947899068209775,1.9530000898827733,-6.670073131763366
0.7221603309354532,-2.017972091873212,1.8862993585651395,-6.868656054324717
0.7019806100167211,-1.8251939963839752,1.8176127980218924,-7.075471690345256
0.6837286700528813,-1.6159663162073599,1.7468580811184398,-7.2924020043124935
0.6675690068908077,-1.389784059841077,1.6739340610753148,-7.521663285110099
0.6536711662923969,-1.14615801455764,1.5987174282242138,-7.765785813471758
0.6422095861468204,-0.8846950759838594,1.5210595700894962,-8.02753554423455
0.6333626353869819,-0.605269113350027,1.4407842146471508,-8.309725203835969
0.6273099442534816,-0.30835399292880705,1.357686962608791,-8.614821347979113
0.6242264043241935,0.004363138287340862,1.271538749129,-8.944188895078417
0.624270035707067,0.32890938035034045,1.1820968601782158,-9.29672641766182
0.6275591295105704,0.6572721461391884,1.0891295960015976,-9.666573959531037
0.6341318509719622,0.9748361733446709,0.9924638564062873,-10.039680158254773
0.643880212705409,1.2574251650062562,0.8920670548237396,-10.389715601512767
0.6564544643554715,1.469823493269492,0.7881698988086119,-10.67577025456801
0.6711526992881665,1.5698610369842,0.6814121962629318,-10.847266882857022
0.6868513096580084,1.5220260940514967,0.5729395274343616,-10.861416561761057
0.7020715705985234,1.3164712798079528,0.46432536181675105,-10.70768704076505
0.715236283396603,0.9773622616594912,0.35724849140910053,-10.41792140396534
0.7250099060131978,0.5499719242551286,0.2530692773694471,-10.048549323635797
0.7305096252557491,0.07893667190149728,0.15258378413308915,-9.652165845765708
0.7312989919747641,-0.4041684691151486,0.05606212567543206,-9.262379384997297
0.7272573072836126,-0.8813828898178597,-0.036561668174540915,-8.89435554148487
0.718443478385434,-1.3440106707047776,-0.12550522358938962,-8.551290371969156
0.7050033716783862,-1.7884179218682936,-0.21101812730908118,-8.230208362813102
0.6871191924597033,-2.2133282361064546,-0.29332021093721217,-7.92555001897236
0.6649859100986387,-2.6183718882670717,-0.37257571112693577,-7.631047873685744
0.638802191215968,-3.0034004411713546,-0.4488861898637932,-7.340615481545634
0.6087681868042545,-3.3682139687099157,-0.5222923446792496,-7.048738234350812
0.5750860471171553,-3.712497565084256,-0.5927797270227577,-6.750631864007635
0.5379610714663127,-4.035859233631811,-0.6602860456628341,-6.442298418671409
0.49760247912999456,-4.337913037110791,-0.7247090298495482,-6.120537648130104
0.45422334875888665,-4.618377683572685,-0.7859144063308493,-5.782936384491028
0.4080395719231598,-4.877173814898676,-0.8437437701757595,-5.4278421406472335
0.35926783377417304,-5.114509995189378,-0.8980221915822318,-5.0543204087223454
0.3081227338222793,-5.330951262616206,-0.9485653956694553,-4.662093288258199
0.2548132211961172,-5.527466791029548,-0.9951863285520373,-4.251457707763077
0.19953855328582173,-5.705455425161783,-1.037700905629668,-3.823183339932815
0.1424839990342039,-5.866749816682092,-1.075932739028996,-3.3783926044285826
0.08381650086738296,-6.013601540122126,-1.109716665073282,-2.9184274487178596
0.023680485466161694,-6.148650707056306,-1.1389009395604606,-2.444709662776172
-0.037806021604401364,-6.274883935421812,-1.1633480361882222,-1.9586033230522797
-0.10055486095861949,-6.395583687864029,-1.1829340694187451,-1.4612899032135476
-0.16451069783725977,-6.514269419040824,-1.1975469684508806,-0.9536694305133252
-0.22965339202766802,-6.634625770276298,-1.2070836627560138,-0.4363063123903601
-0.295999649730431,-6.760403657565054,-1.2114467258799173,0.090551291491063
-0.3636036863060816,-6.8952638117181815,-1.2105412129650066,0.6268301679207106
-0.4325563244232634,-7.042504833159428,-1.2042729112857995,1.1722852512930029
-0.5029813727548577,-7.204573570627371,-1.1925500587728695,1.725805039712764
-0.5750271084611314,-7.382192106154152,-1.1752920083757419,2.2841416550801745
-0.6488490295226729,-7.5728704117470835,-1.1524505918249401,2.839752350469049
-0.7245777336401437,-7.768594385677645,-1.1240530683202496,3.377479448203473
-0.8022636774969201,-7.952845922949965,-1.0902782738382149,3.8703325602292327
-0.8817921367264198,-8.098323932895298,-1.0515749482359225,4.276375063686397
-0.9627753760553728,-8.168999288367067,-1.0088111975990586,4.541932600297094
-1.0444653689390435,-8.131216972565484,-0.9633918715960876,4.617827839747057
-1.1257775386646984,-7.972354927330291,-0.9172135931986171,4.48641414290487
-1.2055010879380013,-7.7122865652307055,-0.8723494517695684,4.178183830884122
-1.2826239535903083,-7.39334799765939,-0.8305676134607272,3.757322959837984
-1.3565574335669022,-7.0580422488373475,-0.7929943838623473,3.289282499780104
-1.4271378560552757,-6.734978143254741,-0.7601015588645463,2.8198811444169296
-1.494487637487823,-6.438030984419181,-0.7319027474203771,2.3734796998087058
-1.5588679473320148,-6.171298293308216,-0.70816795042229,1.95978847459986
-1.620580930265097,-5.933855537447693,-0.6885700656762914,1.5806481732521807
-1.679919485639574,-5.722714564705911,-0.6727635839437696,1.2343557885322214
-1.7371466312866333,-5.534332992299587,-0.6604200260584473,0.9179420381946994
-1.7924899612096292,-5.365285414422905,-0.6512406056765003,0.6282360135194237
-1.8461428153538584,-5.212515378533081,-0.6449582455413061,0.36230673884121994
-1.8982679691391893,-5.0733960052337235,-0.6413351781528939,0.11760914653351642
-1.9490019291915266,-4.9457111346680644,-0.6401590866875587,-0.10800092980608234
-1.9984590405382072,-4.827608648319821,-0.6412390959856196,-0.31630428883054346
-2.0467351270214054,-4.717548453183227,-0.6444021388739251,-0.5087725112661479
-2.0939106115532375,-4.614254060882746,-0.6494898639865865,-0.6866231066871178
-2.140053152162065,-4.516670621168386,-0.6563560950534577,-0.8508694793569915
-2.185219858373749,-4.423929690229575,-0.6648647898470277,-1.002363803816967
-2.2294591552760448,-4.335320031787251,-0.6748884278851973,-1.1418327394259822
-2.2728123555939175,-4.250263473629933,-0.6863067552794572,-1.2699066296718875
-2.315314990330217,-4.168294862394687,-0.6990058215761761,-1.3871430456848683
-2.3569979389541635,-4.089045287483416,-0.7128772520330248,-1.4940455338668226
-2.3978883918289977,-4.012227898318346,-0.727817707371693,-1.5910783480976782
-2.438010670812181,-3.9376257834622583,-0.7437284908526698,-1.678677846500287
-2.4773869286468035,-3.865081503353883,-0.7605152693176727,-1.7572611353270522
-2.5160377436803425,-3.7944879681885073,-0.7780878806709431,-1.8272324563582334
-2.5539826233622276,-3.725780430486143,-0.7963602052345254,-1.8889877405858426
-2.591240427667089,-3.6589294212259524,-0.8152500826403839,-1.9429176885853294
-2.6278297218793485,-3.5939345024376994,-0.8346792595262372,-1.9894096848399159
-2.6637690669037255,-3.5308187409620215,-0.8545733563746364,-2.0288488074795943
-2.699077254313346,-3.4696238304630724,-0.8748618444494324,-2.061618154913618
-2.7337734926179764,-3.4104058040109777,-0.8954780259985685,-2.0880986755755777
-2.767877550658086,-3.3532312895457954,-0.9163590127543243,-2.1086686557215497
-2.8014098635535443,-3.2981742668132896,-0.9374456993115398,-2.123702992442728
-2.834391606221677,-3.2453132881214937,-0.9586827292359671,-2.1335723544638103
-2.8668447391028917,-3.194729127419927,-0.9800184527806052,-2.1386423116846016
-2.898792030377091,-3.146502823428305,-1.0014048758974512,-2.139272495617203
-2.930257058611374,-3.1007140833221225,-1.0227976008536233,-2.135815836717559
-2.9612641994445954,-3.057440014146339,-1.0441557592207988,-2.1286179109420726
-2.9918385995860586,-3.0167541498813253,-1.0654419383302196,-2.1180164164945237
-3.022006141084872,-2.9787257430409824,-1.0866221024951648,-2.1043407924654693
-3.0517933985152816,-2.943419290887871,-1.1076655104198194,-2.0879119836921283
-3.0812275914241605,-2.910894267804008,-1.1285446302567408,-2.06904235046083
-3.1103365341022005,-2.8812050370279474,-1.1492350537613492,-2.048035717415467
-3.13914858447248,-2.854400916810342,-1.169715410935504,-2.0251875530088137
-3.167692593640583,-2.8305263779943823,-1.1899672864655921,-2.000785268834674
-3.1959978574205268,-2.8096213520355304,-1.2099751391539388,-1.9751086270177662
-3.224094070940882,-2.791721630480693,-1.2297262254241166,-1.9484302433420402
-3.252011287245689,-2.7768593388796177,-1.249210527857537,-1.9210161738117728
-3.2797798806344853,-2.765063469956865,-1.2684206895956547,-1.8931265727262743
-3.307430515334054,-2.7563604625944462,-1.2873519553229174,-1.8650164109887468
-3.334994119959999,-2.750774814733364,-1.3060021194328049,-1.8369362441590813
-3.3625018681073326,-2.7483297196733654,-1.3243714818743957,-1.8091330206098042
-3.3899851653040662,-2.7490477164161993,-1.3424628120804938,-1.781850920977022
-3.4174756424682284,-2.752951345644763,-1.360281321290264,-1.7553322208474504
-3.445005155924676,-2.760063803648218,-1.3778346434987385,-1.729818169230263
-3.4726057939611583,-2.7704095869831504,-1.395132825191041,-1.7055498757768965
-3.50030988983099,-2.78401512089611,-1.41218832394881,-1.6827691998863474
-3.528150041039951,-2.8009093645170364,-1.4290160159476735,-1.6617196347246093
-3.5561591346851213,-2.8211243855598993,-1.4456332122949196,-1.642647178753913
-3.5843703785407204,-2.8446958967301557,-1.4620596840824587,-1.6258011865713633
-3.612817337508022,-2.871663745232347,-1.4783176959481723,-1.6114351896601598
-3.6415339749603457,-2.9020723456902493,-1.494432047844774,-1.599807676024972
-3.670554698417248,-2.9359710454335493,-1.5104301246050236,-1.5911828155850178
-3.6999144088715834,-2.97341440947012,-1.5263419527608737,-1.5858311156089953
-3.7296485529662844,-3.0144624105595064,-1.5422002639169636,-1.5840299873800698
-3.7597931770718795,-3.059180507649316,-1.5580405637907644,-1.5860642016764626
-3.790384982148373,-3.107639593564953,-1.573901205807529,-1.5922262065655721
-3.8214613780840225,-3.1599157903082564,-1.5898234678731846,-1.6028162764896172
-3.853060535987105,-3.216090067703329,-1.6058516306380808,-1.6181424567629907
-3.885221436664138,-3.2762476585447553,-1.6220330552057107,-1.63852026255553
-3.9179839132495857,-3.340477241014952,-1.638418257831266,-1.6642720864216685
-3.9513886856597353,-3.4088698571566627,-1.6550609786954826,-1.695726263759539
-3.985477384231302,-3.4815175348871885,-1.672018241333078,-1.7332157416563048
-4.020292559580174,-3.5585115807625725,-1.689350398749641,-1.7770762939236078
-4.0558776753878,-3.6399405118500243,-1.707121161688877,-1.8276442244044444
-4.0922770805063,-3.725887598114906,-1.7253976039329215,-1.8852535026219261
-4.129535956487449,-3.816427992190983,-1.7442501389591407,-1.9502322814367479
-4.167700236409359,-3.911625431813453,-1.763752461773508,-2.022898756558317
-4.206816490727493,-4.011528512059302,-1.7839814493390913,-2.103556343506047
-4.246931775848086,-4.116166540270458,-1.8050170127741518,-2.192488169855542
-4.2880934412507905,-4.225545006363098,-1.8269418944727072,-2.289950910030966
-4.330348891314421,-4.33964072509728,-1.8498414035730169,-2.3961680268393097
-4.373745298565394,-4.458396734340124,-1.87380308384141,-2.511322528121251
-4.418329265908795,-4.581717063434595,-1.8989163091226224,-2.635549397257112
-4.464146436543142,-4.709461516912375,-1.9252718030951936,-2.7689279107616755
-4.511241051712266,-4.84144064874623,-1.9529610822028103,-2.9114741116412155
-4.559655458199728,-4.9774111283016085,-1.9820758233192224,-3.0631337592180765
-4.609429569482744,-5.117071717836057,-2.012707160911403,-3.2237761193660734
-4.660600286661104,-5.260060089337117,-2.044944922105064,-3.393188987459713
-4.713200887554476,-5.405950702421441,-2.078876811979661,-3.571075343602441
-4.76726039457869,-5.5542539423739195,-2.1145875654156856,-3.7570520202756152
-4.822802934002429,-5.704416676837389,-2.1521580856184417,-3.950650712379106
-4.879847100770803,-5.855824331497214,-2.191664592742233,-4.15132157707326
-4.938405344085775,-6.007804511624399,-2.2331778085129654,-4.358439557370937
-4.998483389202019,-6.159632111793033,-2.276762204086675,-4.571313424042979
-5.0600797103199495,-6.3105357663484405,-2.322475338327105,-4.789197373388453
-5.123185067983434,-6.459705405100845,-2.3703673120609894,-5.011304854657081
-5.1877821220344424,-6.6063005991110915,-2.42048036060756,-5.236824142575609
-5.253845128025553,-6.749459316183953,-2.4728486020333165,-5.464935029396759
-5.3213397211873925,-6.888306658766715,-2.527497952327284,-5.694825897070304
-5.39022278777506,-7.021963129890192,-2.584446211297987,-5.925710350111997
-5.460442419073962,-7.149551964579363,-2.6437033147991067,-6.1568425459915685
-5.531937938719755,-7.270205071728292,-2.7052717402590223,-6.387530350739359
-5.604639989437039,-7.383067150590005,-2.769147043766416,-6.617145468037872
-5.6784706609429385,-7.48729757276249,-2.835318498446795,-6.845129733547072
-5.7533436366705635,-7.582069652451936,-2.9037697957822655,-7.070996825936474
-5.829164333195083,-7.666566965458896,-2.97447976404163,-7.294328717593497
-5.9058300028496715,-7.739976425569158,-3.047423051217565,-7.514766271041966
-5.983229767105363,-7.801477895820987,-3.122570713927985,-7.731993487673994
-6.061244546063572,-7.85023021730691,-3.1998906488047245,-7.945715047184354
-6.1397468482366415,-7.885353701804261,-3.279347799276568,-8.155626961934896
-6.2186003852546845,-7.905909384694521,-3.360904068895917,-8.361380443240389
-6.29765947910163,-7.910875704239229,-3.444517873328321,-8.56253947918772
-6.376768236144022,-7.8991237969541945,-3.5301432681201983,-8.758533207213704
-6.455759474113564,-7.8693933063844295,-3.6177286001923354,-8.948604983139068
-6.534453407177408,-7.820271507137198,-3.707214650023726,-9.1317611465717
-6.61265612224878,-7.750179624514379,-3.798532261489443,-9.306723875248219
-6.690157918493924,-7.657371394986025,-3.891599500241925,-9.47189415890184
-6.766731632443784,-7.5399499767656515,-3.9863184418309436,-9.625332647588264
-6.84213113221144,-7.395909961519885,-4.082571768306826,-9.764767618821631
-6.916090231826639,-7.223210987645673,-4.180219444495042,-9.88764003935869
-6.988322341703096,-7.0198877297153,-4.279095844888628,-9.991194954886039
-7.058521219000249,-6.7841972678710025,-4.379007794437489,-10.072625421794418
-7.1263631916789585,-6.514798712848591,-4.479734048655433,-10.12926926284944
-7.191511178807445,-6.210951767218103,-4.581026741283927,-10.158850012199023
-7.253620696479626,-5.8727118725188205,-4.682615241405918,-10.159742464395928
-7.312347815204814,-5.501092014096789,-4.784212666049877,-10.131232505956579
-7.367358735345782,-5.0981581137400465,-4.885524991109443,-10.07373372433147
-7.4183403164831825,-4.667028937986123,-4.986262328352757,-9.988923162981438
-7.465010605863044,-4.211763642947252,-5.0861515599825715,-9.879767691883885
-7.5071282422925165,-3.737138752581935,-5.18494923690141,-9.750430167915495
-7.544499629818336,-3.2483369797663757,-5.282453538580565,-9.606066958379436
-7.576982999616,-2.750586857638562,-5.3785142081643595,-9.452549366019888
-7.6044888681923855,-2.2487995975776567,-5.4730397018245585,-9.296155044968279
-7.626976864168162,-1.7472459547173194,-5.5660012522742415,-9.143278278961441
-7.644449323715335,-1.2493029699391778,-5.657434035063856,-9.000200510663369
-7.656942353414727,-0.7572827877865389,-5.74743604017049,-8.872948523167773
-7.664515181292592,-0.27233844450491973,-5.836165525402167,-8.767252273293181
-7.667238565737642,0.20557162207140228,-5.923838048135099,-8.688601911366439
-7.665182849516928,0.6776859667837485,-6.010724067248764,-8.642396334028572
-7.65840598984909,1.1464369548140163,-6.097148030589049,-8.634173792256824
-7.64694162030095,1.6154669709479703,-6.183489768511618,-8.66991675322289
-7.63078695059147,2.0896822105421586,-6.270188936043847,-8.756424543214372
-7.6098901284860485,2.575348354369948,-6.3577531814759904,-8.901740834598309
-7.584136644942349,3.080201048548954,-6.446770589821973,-9.115592313775114
-7.55333463445686,3.6134670224577734,-6.537926512959724,-9.409699992988218
-7.517199964232282,4.185497960807312,-6.632023512889607,-9.797567072098733
-7.4753449846242095,4.80624068282074,-6.729999183610594,-10.2926921820583
-7.427282577796002,5.480654898963781,-6.832926105431176,-10.902612376424717
-7.372476028806364,6.197013265530571,-6.941952229195423,-11.613123199867529
-7.310505896151058,6.9019319915102635,-7.058083461194099,-12.35399982866241
-7.241486576235956,7.464578949886673,-7.181623459480723,-12.949224348521913
-7.166840786737089,7.6812363998702535,-7.311115702965942,-13.12215868257296
-7.090028422738387,7.423529521506102,-7.442337289791672,-12.698389363506541
-7.015793127523326,6.817972388460815,-7.569321183426737,-11.850051393333436
-6.947613403638718,6.116757617673612,-7.6878216973600715,-10.915122750046464
-6.886445827461982,5.4704163706681355,-7.796972924860536,-10.08892008257219
-6.831741663755301,4.917577931809489,-7.897862125686258,-9.415647789755067
-6.782565884437206,4.451320919100686,-7.9920186035838086,-8.880618173943745
-6.738052675246199,4.054680842806488,-8.080824785323246,-8.45797857103519
-6.697505866818134,3.7116498370431903,-8.165404571033598,-8.124797161892515
-6.660389368447702,3.409362163134553,-8.246652542652523,-7.863426509057576
