th1 (rad),w1 (rad/s),th2 (rad),w2 (rad/s)
2.682272234358208,-0.4408363176507281,2.971138897226377,-2.965416299343658
2.677863871181701,-0.4828089144701645,2.9414847342329407,-2.942360033572029
2.673035782036999,-0.5256173639141763,2.9120611338972204,-2.9211178750974365
2.6677796083978573,-0.5691876691096037,2.882849955146246,-2.90173749557181
2.6620877317067615,-0.6134601892826202,2.8538325801905278,-2.8842511670810778
2.6559531298139354,-0.6583903364360788,2.824990068519717,-2.868674532722131
2.6493692264495747,-0.7039489454308729,2.796303323192496,-2.855005813557207
2.642329736995266,-0.7501223314771027,2.767753265056924,-2.8432254272471194
2.6348285136804948,-0.7969120613569111,2.739321010784453,-2.833295977690523
2.6268593930669257,-0.8443344732729665,2.7109880510075475,-2.825162564164656
2.618416048334196,-0.8924199850829581,2.682736425365901,-2.8187533526878523
2.6094918484833665,-0.9412122322301358,2.6545488918390223,-2.8139803510514554
2.600079726161065,-0.9907670755269435,2.626409088328508,-2.810740331349511
2.590172055405796,-1.041151515808579,2.598301685015013,-2.8089158488937285
2.57976054024771,-1.0924425480587412,2.570212526526076,-2.8083763131783686
2.5688361147671226,-1.1447259825562868,2.542128763394292,-2.808979074209252
2.5573888549415598,-1.1980952554126632,2.5140389726521994,-2.8105704953597668
2.545407902387433,-1.2526502459404196,2.4859332676986017,-2.812986991484713
2.532881399928029,-1.3084961138513997,2.4578033977837546,-2.8160560180167593
2.519796438789515,-1.365742165448438,2.429642837603587,-2.8195970030590396
2.5061390171350304,-1.4245007547689919,2.4014468675729965,-2.823422220068768
2.4918940095873405,-1.4848862230138609,2.373212645372309,-2.8273376036923685
2.477045147357202,-1.5470138774507594,2.344939269335385,-2.831143515815952
2.4615750085826944,-1.6109990091927493,2.3166278341772255,-2.8346354731245214
2.4454650184907667,-1.6769559476712652,2.2882814794459803,-2.837604851622664
2.428695459014054,-1.7449971481015991,2.2599054309297535,-2.8398395878640303
2.411245487533038,-1.8152323066219145,2.2315070350511133,-2.8411249012663076
2.3930931644668187,-1.8877674959199189,2.20309578603845,-2.8412440670445664
2.3742154895076197,-1.9627043118847511,2.1746833453680043,-2.8399792751640276
2.3545884463887723,-2.0401390189668716,2.146283552616364,-2.837112617476078
2.3341870561991036,-2.1201616783124124,2.1179124264416034,-2.83242725304305
2.3129854394159794,-2.202855238156802,2.0895881539111727,-2.825708810767254
2.2909568870344112,-2.2882945601877585,2.0613310658035,-2.8167470990121055
2.2680739414325335,-2.376545348368772,2.033163594813379,-2.8053382041291828
2.244308487948846,-2.467662937784505,2.0051102127720872,-2.7912870738535482
2.219631858571001,-2.5616908901679922,1.9771973420335518,-2.774410697508427
2.194014949669321,-2.658659329680002,1.9494532350584675,-2.7545420128478306
2.167428356372521,-2.758582937131415,1.921907814929989,-2.7315346888993868
2.139842527001207,-2.8614585032938704,1.8945924680409951,-2.7052689546706934
2.1112279419682682,-2.967261922754345,1.8675397784942882,-2.6756586636919124
2.0815553227407246,-3.0759444901115076,1.8407831918573692,-2.642659801662622
2.0507958778396094,-3.187428342376867,1.8143565938407429,-2.6062806549319197
2.0189215944158407,-3.301600878926441,1.7882937872914237,-2.5665938548416443
1.9859055856265764,-3.4183079890620456,1.7626278487430074,-2.523750487598688
1.951722505735956,-3.5373459358154435,1.7373903438670204,-2.4779963976699606
1.9163490463778015,-3.658451795159081,1.7126103798903207,-2.4296906960999816
1.8797645284262106,-3.7812924481417776,1.688313472929321,-2.379326289810211
1.8419516039447927,-3.905452288713178,1.6645202100312189,-2.327551945974305
1.802897081057661,-4.030420062081564,1.6412446905714757,-2.275194968918591
1.7625928804368454,-4.155575602917919,1.6184927408822898,-2.2232829757930364
1.721037124407666,-4.280177701198991,1.5962599111243594,-2.1730625145347204
1.6782353473956761,-4.403354859115308,1.574529285979012,-2.126011421493681
1.634201798804523,-4.524101241540075,1.5532691717640752,-2.083840987204684
1.5889607863891222,-4.641280527539689,1.5324307618920283,-2.0484834053981773
1.5425479811137253,-4.753640435842829,1.5119459278380465,-2.0220599433677435
1.495011576755297,-4.859840175731817,1.491725328404369,-2.00682617422894
1.4464131749979787,-4.95849175096377,1.4716570666620796,-2.005092786087952
1.396828257488341,-5.048213858452664,1.4516061388012,-2.0191240239427612
1.3463461189038144,-5.127694313671504,1.4314148985617725,-2.051020367715088
1.2950691757670993,-5.195754117503341,1.4109046948846216,-2.1025966658530306
1.2431116345920659,-5.251404366534202,1.3898787282260912,-2.175270229773341
1.190597590926724,-5.293887107905717,1.3681260259283576,-2.269973936047407
1.1376587198476666,-5.322693416003729,1.3454262865678837,-2.387106409530633
1.0844317856876293,-5.337556098062959,1.3215552224725773,-2.5265252779722345
1.0310562247069996,-5.3384194073495665,1.296289969692855,-2.687581909137673
0.9776720306335039,-5.3253924789336535,1.2694141506014782,-2.869189177282426
0.9244181058441674,-5.298695699763209,1.240722258828654,-3.069909523603065
0.8714311488465353,-5.258609432863851,1.2100231635926233,-3.288049653230517
0.8188450545178968,-5.205432811817778,1.1771426670603182,-3.521750192916548
0.766790726399719,-5.139457594271019,1.1419251651311528,-3.7690622591495857
0.7153961504570088,-5.060959259163488,1.104234542539657,-4.028006752931179
0.6647865578653739,-4.970205322976042,1.0639544750103451,-4.296615268859217
0.6150845046356135,-4.867479521347358,1.0209883223217529,-4.5729533030072345
0.5664097094221399,-4.7531200240165115,0.9752587892916805,-4.855126964074109
0.5188785091819748,-4.627570016472018,0.9267075196509394,-5.141273916586345
0.4726028090172546,-4.491439523944545,0.875294780485076,-5.429538204051597
0.42768841377780914,-4.345577997776856,0.82099939844456,-5.718027324076566
0.3842326338000406,-4.1911576347225035,0.7638191252037944,-6.004748889524212
0.34232105745281555,-4.0297672751815,0.7037716363085522,-6.287523942326939
0.30202338470100054,-3.8635154704763903,0.6408963968852828,-6.563875242331828
0.2633882299962366,-3.6951381165811856,0.5752576444619645,-6.830892717278815
0.22643684883042475,-3.528099901161536,0.5069487172891763,-7.085086133786298
0.1911558498188094,-3.366668792820475,0.43609785595131334,-7.322248264845689
0.15748916189060463,-3.2159290349576737,0.36287537330285646,-7.537370484513992
0.1253298715410279,-3.0816835039063113,0.2875016684577165,-7.7246733638182885
0.09451303650196478,-2.970188840940027,0.2102549348195336,-7.877827386547103
0.06481114809256451,-2.887680368787885,0.13147666095406257,-7.99042532331067
0.03593434440468566,-2.8396934095165363,0.05157240772095588,-8.056708230800586
0.007537410309520296,-2.8302749257500546,-0.02899467458704999,-8.072438398723245
-0.02076533894798025,-2.861274427435778,-0.10971905857428244,-8.035692764843432
-0.04937808322233803,-2.931943461037972,-0.19007598622271676,-7.947299289427289
-0.07869751783271775,-3.039003507695723,-0.26954897911698966,-7.810726748390709
-0.10908755290967498,-3.177175276234494,-0.3476562466008968,-7.631447316357707
-0.14085930567201993,-3.339991322589749,-0.42397071976447387,-7.416000155211365
-0.17425921889791743,-3.520641124191729,-0.49813072131658753,-7.171063936391096
-0.2094656301398347,-3.7126482542358374,-0.5698413606804985,-6.902770841153842
-0.24659211268219308,-3.9102939128882928,-0.6388690690920369,-6.61634512814701
-0.285695051811076,-4.1088028393964535,-0.705032520373507,-6.31602433941376
-0.32678308020504054,-4.304358749480162,-0.7681927637676447,-6.005164828492086
-0.3698266676998422,-4.494022043952967,-0.8282444120525655,-5.6864345294567835
-0.41476688813937185,-4.675604974170421,-0.8851087573471333,-5.362023943842486
-0.46152293788107607,-4.847537442659248,-0.9387289967855582,-5.033837243331924
-0.5099983123076686,-5.00873922801717,-0.9890673692188774,-4.703648527654327
-0.5600857045878402,-5.15850360208498,-1.0361038544954206,-4.3732221043338235
-0.6116707406086901,-5.29639184277022,-1.0798360755387588,-4.044402314095917
-0.6646346590363923,-5.422136187386528,-1.120280098679718,-3.7191805212079356
-0.7188560209102576,-5.535548859963019,-1.1574719038917973,-3.3997463142662205
-0.7742115095098878,-5.636436075844474,-1.1914693670344596,-3.0885277666143915
-0.8305758702683326,-5.724517988578051,-1.2223546447006035,-2.7882222203539437
-0.8878210501541131,-5.799358279730362,-1.250236866904143,-2.5018146136457453
-0.9458146329514167,-5.8603104159598445,-1.2752550130406004,-2.2325750308479315
-1.004417737111015,-5.906491163326511,-1.2975807633490797,-1.984021517727399
-1.0634826487442801,-5.936794807727818,-1.3174209785263538,-1.7598297710993005
-1.1228505968215583,-5.9499618556931235,-1.3350192762373467,-1.5636708473588576
-1.1823502153784895,-5.944711195371727,-1.3506559847109354,-1.3989653385586296
-1.2417973273322067,-5.919932453551311,-1.3646456380965217,-1.2685608470370793
-1.3009966518677198,-5.874915706800156,-1.3773312465668925,-1.1743686545576482
-1.3597458089357215,-5.80957391259892,-1.389074933112469,-1.1170274366649273
-1.4178415480617108,-5.724599981882286,-1.4002452074791183,-1.095680988133121
-1.4750875478805336,-5.621506812172498,-1.4112020173604496,-1.1079462499264858
-1.5313026160022587,-5.502528492398244,-1.4222814798597145,-1.150102208486917
-1.5863279009262412,-5.370403800474584,-1.4337825019445838,-1.217465150803641
-1.640031938930987,-5.228098578177687,-1.44595715345262,-1.304861828197242
-1.692312924712764,-5.078534738776516,-1.4590057717345926,-1.4070946162531865
-1.743098272100529,-4.924378706098422,-1.4730767178971245,-1.519314876667192
-1.7923420591615133,-4.767913211292599,-1.4882698666637963,-1.6372644942128902
-1.8400211912744393,-4.610989160298008,-1.5046425116059252,-1.7573876331504847
-1.8861310828774194,-4.455038022401502,-1.52221638793743,-1.8768408024070682
-1.9306814631014344,-4.301120747883187,-1.5409847959615006,-1.9934375151459154
-1.9736926705802662,-4.14999254900372,-1.5609191711129597,-2.1055599041048807
-2.015192596070303,-4.0021692341810065,-1.5819747701540086,-2.212060634535553
-2.055214288412113,-3.857986973739728,-1.6040953764993642,-2.3121692424658917
-2.0937941581495103,-3.7176520141921925,-1.627217068924023,-2.405409864953895
-2.1309706782914324,-3.581279767045209,-1.651271167573562,-2.4915326447853303
-2.1667834759618847,-3.4489242326857346,-1.6761864940214153,-2.5704584549390206
-2.201272718288742,-3.3205993448723845,-1.7018910785708055,-2.642235354005157
-2.234478711737466,-3.196293924243633,-1.728313432110857,-2.707004790117396
-2.2664416509799024,-3.0759817752174174,-1.7553834800120311,-2.7649756196845887
-2.2972014687320765,-2.959628208800316,-1.783033236208877,-2.816404250950419
-2.32679775082008,-2.847194009035936,-1.8111972787183812,-2.8615795231503984
-2.3552696909104394,-2.738637622300353,-1.8398130739498852,-2.900811221247717
-2.3826560671334427,-2.633916150154965,-1.8688211861623625,-2.9344213755146735
-2.4089952286349923,-2.5329855689750267,-1.8981653999175092,-2.9627376973681407
-2.4343250843247426,-2.4358004785201475,-1.9277927768911907,-2.9860886606486265
-2.458683089109944,-2.3423135906877213,-1.9576536634976769,-3.0047998576170234
-2.482106225016821,-2.2524751026375047,-1.987701662073847,-3.0191913487871322
-2.504630976043196,-2.1662320498336953,-2.0178935755617182,-3.0295757921708337
-2.526293296541533,-2.0835276998456864,-2.0481893334834265,-3.036257186339386
-2.54712857353999,-2.0043010234458163,-2.07855190534682,-3.0395300974819395
-2.567171583774448,-1.9284862629091624,-2.1089472063216395,-3.0396792669037875
-2.5864564464035396,-1.856012606370436,-2.1393439989906775,-3.0369795148154672
-2.605016572467244,-1.786803970045027,-2.1697137941388323,-3.0316958707963684
-2.6228846121676943,-1.720778885882019,-2.200030752846796,-3.024083872423585
-2.6400924010265143,-1.6578504898897035,-2.230271591571032,-3.014389982292971
-2.656670905925411,-1.597926605288373,-2.2604154913939616,-3.0028520807846797
-2.672650171978295,-1.5409099143052616,-2.2904440122018084,-2.989699997980866
-2.6880592711213476,-1.4866982124729584,-2.320341012181617,-2.975156053506253
-2.702926253246077,-1.4351847394740904,-2.3500925727166795,-2.9594355779868886
-2.717278100640818,-1.3862585807271917,-2.3796869284965485,-2.9427473944674842
-2.7311406864480903,-1.339805133937567,-2.409114402441223,-2.925294242577779
-2.744538737787466,-1.29570663470582,-2.438367344867001,-2.9072731325194767
-2.7574958041345243,-1.2538427350037156,-2.467440076192196,-2.888875620038266
-2.7700342314845616,-1.2140911279341673,-2.4963288323925785,-2.870287997397869
-2.7821751427639034,-1.1763282117539957,-2.525031712366557,-2.851691398911244
-2.793938424881443,-1.140429785731102,-2.5535486263556697,-2.833261822724653
-2.805342722738754,-1.1062717701095122,-2.5818812445829162,-2.815170073212214
-2.816405440439849,-1.0737309423355719,-2.610032945315038,-2.7975816304539216
-2.8271427498632047,-1.042685681808955,-2.6380087616195773,-2.780656454793967
-2.8375696066812943,-1.0130167157926149,-2.665815326167517,-2.7645487353937344
-2.8476997738392207,-0.9846078597490688,-2.693460813521454,-2.749406592025305
-2.8575458524367114,-0.9573467462410776,-2.7209548794417073,-2.735371739152812
-2.867119319899122,-0.9311255375908934,-2.7483085968332355,-2.7225791207110306
-2.876430575275031,-0.9058416186589514,-2.7755343880403456,-2.71115652303261
-2.885488991461621,-0.881398267288193,-2.802645953270672,-2.7012241722385557
-2.894302974134503,-0.8577053010619293,-2.8296581949930575,-2.6928943212445753
-2.9028800271451223,-0.8346796999365268,-2.8565871382055033,-2.686270830504805
-2.9112268241444874,-0.8122462049356308,-2.883449846510551,-2.681448745862442
-2.9193492861938437,-0.7903378933431564,-2.9102643339691756,-2.678513876534415
-2.927252665127275,-0.768896730640408,-2.9370494727345196,-2.677542376427909
-2.9349416324336794,-0.7478740987567398,-2.9638248964987985,-2.6786003327384997
-2.9424203734212466,-0.7272312990328383,-2.9906108998261836,-2.681743367137916
-2.949692686411575,-0.7069400266570715,-3.0174283334975627,-2.687016256799591
-2.9567620866781454,-0.6869828112950919,-3.044298496065559,-2.6944525849521055
-2.9636319147910966,-0.6673534163014196,-3.07124302191508,-2.7040744334547715
-2.970305448954111,-0.6480571864346307,-3.0982837662496276,-2.7158921328547225
-2.9767860208184573,-0.6291113315944152,-3.125442687578175,-2.729904088249966
-2.9830771341344016,-0.6105451319971266,-3.1527417284606747,-2.746096701734326
-2.989182585454373,-0.5924000486725778,-3.180202695478018,-2.7644444138860265
-2.9951065859410986,-0.5747297224760803,-3.207847139616878,-2.7849098873141824
-3.0008538831658593,-0.5575998452309013,-3.23569623849002,-2.8074443543455914
-3.0064298816181685,-0.5410878883697624,-3.263770682033476,-2.83198814822377
-3.011840760501866,-0.525282677675157,-3.2920905635157136,-2.8584714325123644
-3.0170935872786178,-0.5102838074606955,-3.320675277840837,-2.886815136705141
-3.0221964253532247,-0.4962008936808473,-3.3495434292078885,-2.9169320974945756
-3.0271584342900333,-0.48315267273445955,-3.3787127501828342,-2.9487283951058347
-3.031989961017378,-0.47126596070535853,-3.4082000341338925,-2.982104863144795
-3.0367026206244314,-0.4606744958858643,-3.4380210827653404,-3.016958739307293
-3.04130936558329,-0.4515176949833732,-3.468190670158413,-3.0531854139474426
-3.045824542533124,-0.4439393597128291,-3.4987225242978877,-3.090680224835458
-3.050263936130252,-0.4380863748760955,-3.5296293265462424,-3.129340240304326
-3.054644799879013,-0.4341074410051174,-3.5609227289492855,-3.1690659700550383
-3.058985874289064,-0.43215188388984277,-3.592613388649836,-3.2097629435405306
-3.0633073931279626,-0.4323685797719355,-3.6247110180852413,-3.2513431001072166
-3.067631078925682,-0.43490502888084687,-3.6572244490863133,-3.2937259426019074
-3.0719801292144906,-0.43990660178704605,-3.690161708512332,-3.3368394162821513
-3.076379195232361,-0.4475159734041412,-3.7235301026751535,-3.380620486683498
-3.0808543549664025,-0.45787274914807474,-3.7573363075419883,-3.4250154025504007
-3.0854330824578833,-0.47111327752884313,-3.7915864615674923,-3.46997964197876
-3.0901442152331717,-0.48737063400105884,-3.82628625798728,-3.515477550616269
-3.095017921573182,-0.5067747527783341,-3.861441033493443,-3.561481689402921
-3.1000856691009653,-0.5294526768761988,-3.897055850387472,-3.607971915457553
-3.1053801958697274,-0.555528892039698,-3.9331355695420473,-3.6549342231589534
-3.1109354847901245,-0.5851257073989772,-3.969684911773637,-3.70235937332327
-3.1167867418641144,-0.6183636444934615,-4.00670850550687,-3.7502413369445473
-3.122970378309049,-0.6553617964262436,-4.044210918876315,-3.798575576688935
-3.1295239962733112,-0.6962381200197025,-4.082196674643204,-3.8473571847407833
-3.136486377473508,-0.7411096256045481,-4.1206702464906115,-3.8965788902352743
-3.1438974737295537,-0.7900924311881227,-4.159636035392964,-3.946228943896139
-3.151798398041435,-0.8433016499793733,-4.199098324831925,-3.9962888820919398
-3.1602314145412285,-0.9008510824440685,-4.239061213652844,-4.046731167725542
-3.169239925365669,-0.962852686159222,-4.279528525330099,-4.09751670150554
-3.1788684522272614,-1.0294157987525905,-4.320503692345155,-4.148592194483213
-3.189162610214787,-1.1006460912563214,-4.361989614289987,-4.199887391497431
-3.2001690711273505,-1.1766442314526007,-4.403988488204962,-4.251312135547671
-3.2119355134418766,-1.2575042394877485,-4.446501609560438,-4.302753265293315
-3.224510555836754,-1.3433115214784226,-4.489529142213371,-4.354071342032894
-3.2379436710515384,-1.4341405713710926,-4.5330698556337,-4.405097208827834
-3.2522850767652494,-1.5300523373147688,-4.577120827721979,-4.455628393075753
-3.267585600138397,-1.6310912566505382,-4.621677111652736,-4.50542537496694
-3.2838965127049025,-1.7372819736841074,-4.666731365402406,-4.55420775799508
-3.3012693324417435,-1.8486257670265949,-4.712273442982356,-4.601650394091072
-3.3197555901120093,-1.9650967287295331,-4.758289946923267,-4.6473795349479765
-3.339406557399305,-2.0866377558527747,-4.804763742272747,-4.690969102487211
-3.3602729349578326,-2.2131564364745944,-4.851673433297619,-4.73193719474764
-3.3824044993225786,-2.3445209362488857,-4.898992805245095,-4.769742968054815
-3.4058497086850674,-2.480556017929241,-4.946690234925644,-4.803784061116827
-3.43065526886436,-2.621039353987387,-4.994728075536812,-4.833394750298845
-3.4568656624042338,-2.7656983203737546,-5.0430620230398,-4.857845045964977
-3.484522645607971,-2.914207486058697,-5.09164047349945,-4.876340955278825
-3.513664720468558,-3.066187036375966,-5.1404038830522385,-4.888026144724794
-3.5443265908323176,-3.221202386220108,-5.189284144499487,-4.89198523310967
-3.5765386146945186,-3.378765249528172,-5.238203996830584,-4.88724893007594
-3.6103262671898,-3.538336431910108,-5.287076486131343,-4.872801203411487
-3.6457096315089013,-3.699330601683192,-5.335804498165458,-4.847588608131766
-3.682702937525733,-3.8611232692156063,-5.384280384246775,-4.810531839345075
-3.721314170217889,-4.023060164293108,-5.432385702640226,-4.76053947782593
-3.7615447718608204,-4.18446914586167,-5.479991097418485,-4.6965237813483265
-3.803389463319437,-4.344674708549694,-5.526956335231968,-4.61741823644707
-3.846836210404934,-4.503015067447629,-5.5731305175964385,-4.522196425767484
-3.89186636107941,-4.65886170949869,-5.618352481854114,-4.409891588248457
-3.938454978174397,-4.811641200683739,-5.662451397736598,-4.279616057430735
-3.9865713901812345,-4.960858938824579,-5.705247558310906,-4.130579563643946
-4.03617997956948,-5.106124450323453,-5.746553353947346,-3.9621051876970683
-4.087241224072715,-5.24717775628958,-5.786174405824316,-3.773641568813011
-4.13971300163561,-5.383916293298784,-5.823910821512446,-3.5647698123904408
-4.193552164568598,-5.51642188388834,-5.859558519636351,-3.3352034297832747
-4.248716383407482,-5.644987332028028,-5.8929105539341835,-3.084779587919806
