th1 (rad),w1 (rad/s),th2 (rad),w2 (rad/s),a1 (rad/s^2),a2 (rad/s^2)
0.10885489003532842,-1.7802960359430158,6.034439772491248,2.842533649806382,-7.355598556243181,10.412320514297221
0.09105192967589826,-1.8538520215054475,6.062865108989311,2.9466568549493544,-6.841150068716153,9.706805144099707
0.07251340946084378,-1.922263522192609,6.092331677538805,3.0437249063903513,-6.139436933322935,8.748729482175241
0.05329077423891769,-1.9836578915258383,6.122768926602709,3.1312122012121035,-5.233273510808198,7.514100293999143
0.03345419532365931,-2.0359906266339203,6.15408104861483,3.206353204152095,-4.118676664380104,5.996970618477297
0.013094289057320102,-2.0771773932777213,6.186144580656351,3.266322910336868,-2.8104469424579723,4.217162155681756
-0.007677484875457111,-2.105281862702301,6.21880780975972,3.3084945318936856,-1.3457333779823035,2.225206367302814
-0.028730303502480122,-2.118739196482124,6.251892755078656,3.3307465955667137,0.21649184902812704,0.10162788968702727
-0.04991769546730136,-2.116574277991843,6.285200221034323,3.331762874463584,1.8013067587899183,-2.051172030159818
-0.0710834382472198,-2.0985612104039437,6.318517849778959,3.311251154161986,3.328446751610691,-4.123572745111123
-0.09206905035125923,-2.065276742887837,6.351630361320579,3.2700154267108745,4.7249019263672585,-6.0161179393831015
-0.1127218177801376,-2.018027723624164,6.3843305155876875,3.2098542473170437,5.935674708803538,-7.654314353773194
-0.13290209501637923,-1.9586709765361288,6.416429058060858,3.1333111037793118,6.929627353225487,-8.996604171526133
-0.1524888047817405,-1.889374703003874,6.4477621690986515,3.0433450620640503,7.69950323019715,-10.034270881275098
-0.17138255181177925,-1.8123796707019024,6.478195619719292,2.943002353251299,8.2574057633808,-10.78508835275644
-0.18950634851879827,-1.7298056130680943,6.507625643251806,2.8351514697237348,8.628130929484522,-11.284049929035508
-0.20680440464947922,-1.6435243037732492,6.535977157949043,2.7223109704333797,8.842583009296472,-11.5742647366448
-0.22323964768721172,-1.5550984736802844,6.563200267653377,2.6065683230669316,8.932616912729316,-11.699866482987918
-0.23879063242401455,-1.4657723045529913,6.589265950884046,2.4895696582370523,8.927715381445198,-11.701480479466703
-0.2534483554695445,-1.3764951507385395,6.614161647466417,2.3725548534423853,8.853295229623711,-11.613947261644544
-0.26721330697692985,-1.2879621984423024,6.6378871960008405,2.2564153808259397,8.730186634462173,-11.465661135792805
-0.2800929289613529,-1.2006603320976807,6.6604513498091,2.141758769468012,8.574824160504976,-11.278880640011538
-0.2920995322823297,-1.114912090492631,6.68186893750378,2.0289699630678966,8.399792063615012,-11.07051586491011
-0.303248653187256,-1.030914169856481,6.702158637134459,1.9182648044187955,8.214489573605011,-10.853070255536156
-0.3135577948858208,-0.9487692741204309,6.721341285178647,1.8097341018634339,8.025783222109618,-10.635555583802294
-0.3230454876270251,-0.8685114418993347,6.739438626197281,1.703378546025411,7.83858289324936,-10.424295057637925
-0.33173060204601845,-0.7901256129668411,6.756472411657535,1.5991355954490316,7.656320283688708,-10.223587238083578
-0.33963185817568686,-0.713562410129954,6.772463767612026,1.4968997230681957,7.481330889579714,-10.036233954121434
-0.3467674822769864,-0.6387491012341568,6.787432764842707,1.3965373835269814,7.315150824043473,-9.863949023422135
-0.353154973289328,-0.5655975929937221,6.801398138677977,1.29789789329276,7.158743038239947,-9.707668728174895
-0.3588109492192652,-0.4940101626113227,6.814377117610905,1.200821206011011,7.012667280924405,-9.567784381012409
-0.36375105084537845,-0.42388348980207863,6.826385329671015,1.105143362200887,6.877206375328039,-9.444314685702976
-0.36798988574339925,-0.35511142604879825,6.837436763293024,1.0107002153438573,6.752459185498092,-9.33703240840202
-0.37154100000388723,-0.2875868341938173,6.847543765446463,0.9173298912598371,6.63840850461691,-9.245556826353965
-0.3744168683458254,-0.2212027491476482,6.856717064359061,0.8248743229962975,6.534970238252617,-9.169420792268191
-0.37662889583730186,-0.15585304676512202,6.864965807589024,0.7331801150736156,6.442028731983134,-9.10811911089576
-0.37818742630495306,-0.09143275944529067,6.87229760873976,0.642098923964658,6.35946188814147,-9.061143238123272
-0.379101753899406,-0.02783814056387597,6.8787185979794065,0.5514874915834252,6.287158784711589,-9.028006013528932
-0.3793801353050447,0.03503344728323991,6.884233472895241,0.4612074314481359,6.2250317984093275,-9.008259149052458
-0.3790298008322123,0.09728376526733319,6.888845547209723,0.37112483995761136,6.173024694981205,-9.001505449551084
-0.378056963179539,0.15901401221714523,6.892556795609299,0.2811097854621005,6.131117741115362,-9.00740717654383
-0.37646682305736756,0.22032518962829883,6.89536789346392,0.19103571369666222,6.099330580043054,-9.025691536435064
-0.37426357116108455,0.2813184954287294,6.897278250600887,0.10077879833231158,6.077723369614948,-9.056153940691605
-0.37145038620679727,0.34209572912487884,6.89828603858421,0.010217258925395531,6.066396485459245,-9.098659417254984
-0.36802942891554846,0.4027596939794713,6.898388211173464,-0.08076933524715431,6.065488924843336,-9.153142324978745
-0.36400183197575375,0.4634145832279047,6.897580517820993,-0.17230075849694176,6.075175393771774,-9.219604314883185
-0.3593676861434747,0.5241663371656224,6.895857510236024,-0.2644968016457736,6.095661906756646,-9.29811027427085
-0.3541260227718185,0.5851229562331889,6.893212542219566,-0.35747790438848215,6.1271795619176075,-9.388781763320202
-0.3482747932094866,0.646394751852365,6.889637763175681,-0.4513657220216842,6.169975959049656,-9.491787188495605
-0.341810845690963,0.7080945114428615,6.885124105955464,-0.5462835939066403,6.224303488472966,-9.607327629969932
-0.33472990057653434,0.7703375463275912,6.879661270016398,-0.6423568702063396,6.290403414148801,-9.735616823805156
-0.3270265251132584,0.8332415804690793,6.873237701314335,-0.7397130384443912,6.368484281753987,-9.876853260404756
-0.3186941093085676,0.8969264232866191,6.865840570929891,-0.8384815710484388,6.458692671997655,-10.031181657866126
-0.3097248450757014,0.9615133500065957,6.857455755219407,-0.9387933876271001,6.561073656643358,-10.198640153358564
-0.3001097115756355,1.0271240865730293,6.848067821343136,-1.0407797891606858,6.675517459816909,-10.379088371456184
-0.2898384707099052,1.0938792611711985,6.837660023451529,-1.1445706728752476,6.801687739096788,-10.57211001680098
-0.2788996780981932,1.1618961385621664,6.826214316722777,-1.2502917730432574,6.9389255454162315,-10.776881749849284
-0.26728071671257153,1.2312853940163289,6.813711398992345,-1.3580605905417502,7.086121388620244,-10.991997822647647
-0.25496786277240824,1.3021466079025312,6.800130793086927,-1.4679805687682266,7.241545976872063,-11.215237342129209
-0.24194639669338291,1.3745620676712518,6.785450987399245,-1.5801329421895187,7.402628286354077,-11.443258326670758
-0.2282007760166704,1.4485883505347925,6.76964965797735,-1.6945655254562264,7.56566805965539,-11.671200486313827
-0.21371489251132247,1.5242450311313465,6.752704002722788,-1.8112775303193647,7.725469448870686,-11.892178023730144
-0.198472442200009,1.6014997256200534,6.734591227419594,-1.9301993105566662,7.874884830265598,-12.096646826129804
-0.18245744494380847,1.6802485739227093,6.715289234314028,-2.051165778817964,8.004265426895794,-12.27164082129283
-0.16565495920458137,1.7602912281916672,6.694777576525849,-2.1738821870308924,8.100832437836079,-12.39989579444575
-0.1480520469226647,1.841299552570028,6.67303875465554,-2.29788114497535,8.148014918907826,-12.458924033683427
-0.1296390513969644,1.9227797017591062,6.650059943205786,-2.422470385312184,8.124856254718042,-12.420180389189502
-0.11041125437937335,2.0040282643062866,6.625835239352664,-2.546672189204079,8.005676636143528,-12.248579460720174
-0.09037097173631048,2.0840850306677217,6.600368517460623,-2.6691579838112807,7.760294848869516,-11.902785294950757
-0.06953012142963326,2.161687979156417,6.57367693762251,-2.788185836760788,7.355240521824693,-11.33687374806134
-0.04791324163806909,2.2352403843746638,6.545795079254902,-2.9015545742414015,6.7564720473273105,-10.50408593744706
-0.025560837794322454,2.3028051048479368,6.516779533512488,-3.006595433615872,5.934044945341332,-9.363294439299048
-0.0025327867458430874,2.36214555430135,6.486713579176329,-3.1002283780088624,4.868792974725449,-7.8882719296159225
0.021088668797170414,2.4108334840486045,6.455711295396241,-3.1791110973050216,3.5602634442838363,-6.078707960776736
0.04519700363765646,2.4464361184914427,6.42392018442319,-3.239898176912789,2.033972678995487,-3.970280166905504
0.06966136482257089,2.4667758452813975,6.391521202654062,-3.279600978581844,0.34501975767131265,-1.6396531736140507
0.09432912327538487,2.4702260428581106,6.358725192868244,-3.295997510317984,-1.4248827394527757,0.7996896953259646
0.11903138370396597,2.455977215463583,6.325765217765064,-3.2880006133647246,-3.1780871454675066,3.21233969187041
0.1435911558586018,2.424196344008908,6.292885211631417,-3.2558772164460206,-4.817256246804082,5.46357760863583
0.16783311929869088,2.376023781540867,6.260326439466957,-3.201241440359662,-6.262099943611267,7.442623070576779
0.19159335711409956,2.3134027821047543,6.22831402506336,-3.1268152096538944,-7.461030857302628,9.078758766169127
0.2147273849351471,2.238792473531728,6.197045872966822,-3.036027621992203,-8.39461554333253,10.346006029025583
0.23711530967046437,2.1548463180984028,6.166685596746899,-2.932567561701947,-9.071403555059403,11.257201522781786
0.2586637728514484,2.0641322825478086,6.13735992112988,-2.819995546474129,-9.519330032086051,11.851955452192508
0.2793050956769265,1.968938982226948,6.109159965665139,-2.7014759919522042,-9.776331072047501,12.183567475873437
0.298994485499196,1.8711756715064731,6.082145205745617,-2.5796403171934696,-9.882657669761354,12.308350499462161
0.31770624221426075,1.7723490948088596,6.056348802573682,-2.456556812198848,-9.875826851368547,12.278649509905579
0.33542973316234936,1.6735908262951742,6.0317832344516935,-2.3337703170997925,-9.78803170100843,12.139289049721397
0.3521656414253011,1.5757105092850898,6.008445531280696,-2.2123774266025786,-9.645338952512652,11.92650300813921
0.367922746518152,1.4792571197599633,5.98632175701467,-2.0931123965211866,-9.467957986101368,11.6683446427923
0.3827153177157516,1.3845775398989497,5.965390633049458,-1.9764289500932637,-9.271025405201417,11.385802553127224
0.39656109311474114,1.2918672858469356,5.9456263435485255,-1.8625709245619915,-9.065548245821809,11.094127520983578
0.4094797659732105,1.2012118033887176,5.927000634302906,-1.7516296493521557,-8.859310946908066,10.80410148300337
0.4214918840070977,1.112618693919637,5.909484337809384,-1.643588634522122,-8.657659387626623,10.52313034661655
0.43261807094629406,1.0260421000433708,5.893048451464162,-1.5383573310559564,-8.464137895492573,10.256129017711753
0.4428784919467278,0.9414007210884451,5.8776648781536025,-1.4357960408788388,-8.280986594851834,10.006210278789986
0.45229249915761227,0.8585908551399267,5.863306917744814,-1.335733938090939,-8.109519338455176,9.775206624321672
0.46087840770901156,0.777495661755375,5.849949578363905,-1.2379818718477222,-7.950405425830502,9.564057941874607
0.4686533643265653,0.69799160749707,5.837569759645428,-1.1423412924289762,-7.803876638901838,9.373095362068682
0.475633280401536,0.6199528411080516,5.826146346721138,-1.0486103388082895,-7.669877725827768,9.202246713231883
0.48183280881261653,0.5432540638497739,5.815660243333054,-0.9565878716759706,-7.548174790634429,9.05118380633237
0.48726534945111427,0.4677723159434296,5.806094364616294,-0.8660760336126468,-7.438432733181424,8.919427106266747
0.4919430726105486,0.3933879886116154,5.797433604280168,-0.7768817625499793,-7.340270141224123,8.806419495036067
0.49587695249666475,0.31998528719937414,5.789664786654668,-0.6888175675996187,-7.253297873202786,8.711577804081259
0.4990768053686585,0.24745230846734628,5.782776610978671,-0.601701789558806,-7.177145914667333,8.634328480120871
0.501551328453332,0.17568084932067296,5.776759593083083,-0.5153585047575974,-7.111481847876786,8.57413201483896
0.5033081369465386,0.10456603084190509,5.771606008035508,-0.4296171846092077,-7.0560233515400625,8.530499483770578
0.5043537972549577,0.03400579732650447,5.7673098361894155,-0.3443121897715019,-7.010546467657834,8.503003593365154
0.5046938552282227,-0.036099667350073875,5.763866714291701,-0.25928215383785036,-6.974890872044266,8.491285939055137
0.504332858554722,-0.10584857607051654,5.761273892753322,-0.17436929444729898,-6.948963015334954,8.495061662588494
0.5032743727940168,-0.1753382062238661,5.759530199808849,-0.08941867782141404,-6.932737724516657,8.514122311400763
0.5015209907317781,-0.24466558346903267,5.758636013030635,-0.004277454707406397,-6.92625864240321,8.548337406255635
0.4990743348970878,-0.31392816989306477,5.758593238483561,0.08120591935514995,-6.929637711544264,8.597654984556394
0.49593505319815717,-0.3832245470085074,5.759405297677112,0.1671824692007139,-6.943053761600429,8.662101180435691
0.4921028077280721,-0.45265508462451165,5.7610771223691195,0.2538034810050708,-6.966750119592404,8.74177870732713
0.487576256881827,-0.5223225858204357,5.76361515717917,0.3412212680783421,-7.001031015950087,8.836863903930082
0.48235303102362265,-0.5923328959799365,5.767027369859953,0.4295899071176429,-7.046256390788195,8.94760176934687
0.4764297020638233,-0.6627954598878185,5.77132326893113,0.5190659248111116,-7.102834497200424,9.074298124004782
0.46980174746494513,-0.7338238048598228,5.776513928179241,0.6098089060511594,-7.171211430934334,9.217307661111153
0.4624635094163469,-0.8055359191691661,5.782612017239752,0.701981982662271,-7.251856362583554,9.377016162670865
0.45440815022465525,-0.8780544827950016,5.789631837066375,0.7957521442889797,-7.345240776033962,9.553814497998138
0.4456276053967052,-0.9515068905553412,5.797589358509265,0.891290289268961,-7.451809382343737,9.748061141137953
0.4361125364911518,-1.0260249843787785,5.806502261401955,0.9887709006803406,-7.571939526805292,9.96002876007562
0.425852286647364,-1.1017443796468314,5.816389970408759,1.0883711882810967,-7.705884770833796,10.189828849918234
0.4148348428508957,-1.1788032273551694,5.82727368229157,1.190269476780279,-7.85369682967605,10.437306291943916
0.40304681057734404,-1.25734019565193,5.839176377059372,1.2946425396997183,-8.01511809620671,10.701892999559432
0.39047340862082475,-1.337491376613997,5.852122802456369,1.4016614696953127,-8.189434506900387,10.982406355829935
0.3770984948546848,-1.419385721683001,5.866139417153322,1.5114855332536121,-8.375275487213615,11.276773921892564
0.36290463763785474,-1.5031384765551372,5.881254272485858,1.6242532724725378,-8.570344262198162,11.581661052257818
0.34787325287230336,-1.5888419191771188,5.897496805210584,1.740069882995116,-8.77105833351734,11.891973141811249
0.33198483368053217,-1.6765525025122923,5.914897504040535,1.8589896144132285,-8.97207736774657,12.200200583718127
0.31521930865540926,-1.766273276189758,5.933487400184668,1.9809916202504099,-9.165696098897946,12.495574901025178
0.2975565758935117,-1.8579302371787374,5.9532973163871725,2.1059473692606616,-9.341086846997454,12.763014125275879
0.2789772735217243,-1.951341105648712,5.974356790079779,2.2335775105134203,-9.483396337270944,12.981863336137652
0.25946386246523717,-2.0461750690214213,5.996692565184913,2.363396143874797,-9.572744844505205,13.124496586370897
0.23900211177502295,-2.141902517466473,6.020326526623661,2.494641109738506,-9.583256423569319,13.154959042161487
0.21758308660035822,-2.2377350817021666,6.045272937721046,2.626190700160121,-9.482382624208885,13.028014871060954
0.19520573578333655,-2.3325589079442555,6.071534844722647,2.7564708488707304,-9.230976001909506,12.68923772350285
0.171880146703894,-2.4248686679633504,6.099099553211355,2.8833632261057587,-8.784800911220024,12.077104638489391
0.1476314600242605,-2.5127166770755505,6.127933185472412,3.004134272490653,-8.098345539665143,11.12830239977945
0.122504293253505,-2.5937001324722018,6.157974528197319,3.1154172964884475,-7.131717397354196,9.787342947991817
0.09656729192878298,-2.6650173064457436,6.189128701162203,3.2132907259683656,-5.860754997445959,8.020677715353802
0.06991711886432554,-2.7236248564202032,6.221261608421887,3.2934975031219036,-4.289013274561312,5.833437702889824
0.042680870300123505,-2.7665149891658163,6.254196583453107,3.351831880150802,-2.4581638765894636,3.28396437281386
0.015015720408465341,-2.791096627931711,6.287714902254614,3.38467152387894,-0.451670061065076,0.4889430790765566
-0.012895245870851769,-2.7956133285423617,6.321561617493404,3.389560954669706,1.612821015725005,-2.387232088006821
-0.04085137915627539,-2.7794851183851117,6.355457227040101,3.3656886337896377,3.6028953622358,-5.159590964478003
-0.06864623034012651,-2.743456164762754,6.389114113377997,3.3140927241448574,5.397086589737879,-7.658499355076911
-0.09608079198775404,-2.689485298865375,6.422255040619445,3.2375077305940883,6.9074098513613,-9.761096767492038
-0.1229756449764078,-2.620411200351762,6.454630117925387,3.139896762919168,8.090707766321731,-11.40708203152971
-0.14917975697992542,-2.5395041226885446,6.486029085554578,3.025825942603871,8.946756578320946,-12.596009007561767
-0.17457479820681088,-2.450036556905335,6.516287344980617,2.8998658525282535,9.507044993306888,-13.371585616501415
-0.19907516377586423,-2.3549661069722663,6.5452860035058995,2.7661499963632394,9.820496306566886,-13.801744421738166
-0.2226248248455869,-2.2567611439065973,6.572947503469532,2.628132552145858,9.941090139585674,-13.96139680825484
-0.24519243628465287,-2.1573502425107405,6.599228828990991,2.4885185840633093,9.919575691174984,-13.920912850105692
-0.2667659387097603,-2.058154485598991,6.6241140148316235,2.3493094555622522,9.79923379180153,-13.740250894020916
-0.2873474835657502,-1.9601621476809756,6.647607109387246,2.211906946622043,9.614595983902003,-13.467203677111963
-0.30694910504255996,-1.8640161878419557,6.669726178853466,2.0772349098509233,9.391893235083375,-13.138045436668946
-0.3255892669209795,-1.7700972554911218,6.690498527951975,1.9458544554842339,9.15029130903368,-12.779265619249324
-0.3432902394758907,-1.678594342400785,6.709957072506818,1.8180617992917405,8.90332889855306,-12.409577489490628
-0.36007618289989857,-1.5895610534152544,6.728137690499735,1.6939660243968342,8.660258565761584,-12.041786148377355
-0.3759717934340511,-1.5029584677576386,6.745077350743704,1.5735481629130605,8.427171132726563,-11.684351791547572
-0.3910013781116275,-1.4186867564303731,6.760812832372834,1.456704644997585,8.207882098209952,-11.342619896624269
-0.4051882456759312,-1.3366079354482736,6.77537987882281,1.3432784460313423,8.004603440473218,-11.019751861393983
-0.41855432503041395,-1.2565619010435414,6.788812663283124,1.2330809274174024,7.818439346318149,-10.717410334642539
-0.43111994404084936,-1.17837750758036,6.801143472557298,1.125906824070977,7.649745133879863,-10.436254207115782
-0.44290371911665294,-1.1018800562415614,6.812402540798008,1.0215442819998193,7.498383461473022,-10.176290846221141
-0.45392251967906855,-1.0268962216268311,6.822617983618006,0.9197813735376079,7.363905162676603,-9.937123657148572
-0.4641914818953369,-0.9532571700000652,6.831815797353382,0.8204101369661222,7.245675647650663,-9.718124093522277
-0.47372405359533754,-0.8808004135235585,6.840019898723043,0.7232288960308995,7.142962453301068,-9.51854976421122
-0.4825320577305731,-0.8093707889905478,6.8472521876833525,0.6280433983887872,7.05499532121279,-9.337624430191886
-0.4906257656204786,-0.73882083577842,6.853532621667241,0.5346671540868684,6.981007007108385,-9.174591273440841
-0.4980139739782628,-0.6690107657073361,6.858879293208109,0.44292124135245997,6.920260683984595,-9.02874757206614
-0.5047040816353362,-0.5998081588674902,6.863308505621634,0.3526337656317986,6.872068100789901,-8.899466561636286
