th1 (rad),w1 (rad/s),th2 (rad),w2 (rad/s),a1 (rad/s^2),a2 (rad/s^2)
0.4322646379405622,-0.47142305059743206,6.021015325729515,-2.6515361467863237,-10.479518036214053,10.734782633095474
0.4275504074345879,-0.5762182309595726,5.994499964261651,-2.544188320455369,-10.23413823277434,10.72740757131815
0.42178822512499214,-0.678559613287316,5.9690580810570975,-2.4369142447421877,-9.984841681335027,10.738077681077877
0.415002628992119,-0.7784080301006662,5.9446889386096755,-2.329533467931409,-9.73433315181874,10.768087181838256
0.40721854869111235,-0.8757513616188536,5.921393603930362,-2.221852596113026,-9.484702433895848,10.817764804773018
0.3984610350749238,-0.970598385957812,5.899175077969232,-2.113674948065296,-9.237610127028924,10.886740528746145
0.3887550512153457,-1.0629744872281013,5.878038328488579,-2.0048075427778347,-8.99442551558574,10.974148641479255
0.3781253063430647,-1.1529187423839586,5.8579902530608,-1.8950660563630422,-8.75632635619962,11.078781147473535
0.3665961189192251,-1.240482005945955,5.839039592497169,-1.7842782448883068,-8.524368741577335,11.199202858594985
0.3541912988597656,-1.3257256933617283,5.821196810048286,-1.6722862163023569,-8.299533546000555,11.33383692998842
0.3409340419261483,-1.4087210288217338,5.8044739478852625,-1.5589478470024727,-8.082754470501085,11.481027348190235
0.32684683163793093,-1.4895485735267446,5.788884469415238,-1.4441375735205704,-7.874931436447544,11.639082985157504
0.3119513459026635,-1.5682978878912202,5.774443093680032,-1.3277467436689954,-7.676932011967602,11.806306270596437
0.2962683670237513,-1.6450672080108961,5.761165626243343,-1.209683680963031,-7.489582657597851,11.981008243657367
0.27981769494364234,-1.7199630345868746,5.7490687894337125,-1.0898735985264572,-7.313650799063867,12.161510653626651
0.2626180645977736,-1.7930995425775134,5.738170053448448,-0.9682584919901907,-7.1498180297550755,12.346134819738182
0.24468706917199845,-1.864597722875064,5.728487468528546,-0.8447971437928088,-6.99864407116475,12.533176071538138
0.2260410919432478,-1.9345841635867116,5.720039497090618,-0.7194653830774274,-6.860520440767115,12.720861721767688
0.2066952503073807,-2.003189367994383,5.712844843259844,-0.5922567658597504,-6.735612067111364,12.90728963477305
0.18666335662743688,-2.0705454886654966,5.706922275601246,-0.4631838695120199,-6.623784338774041,13.090343525690363
0.16595790174078193,-2.136783332053237,5.702290436906126,-0.3322804342551163,-6.524512287283882,13.267580171519988
0.14459006842024957,-2.202028454926076,5.6989676325635745,-0.1996046325399164,-6.436767832430598,13.436082800836324
0.12256978387098881,-2.2663961332503817,5.696971586238176,-0.06524380453155315,-6.358880373872415,13.592274210734663
0.099905822538485,-2.329984936989106,5.696319148192861,0.0706789375757935,-6.288365713467709,13.731682942370098
0.07660597316859394,-2.392868594123783,5.697025937568618,0.20799576699949449,-6.221718723292868,13.848656669425965
0.05267728722735611,-2.4550857813567117,5.699105895238613,0.34648233369375414,-6.154166973073926,13.93601971085553
0.02812642941378899,-2.516627451087451,5.702570718575551,0.48584253080230944,-6.079386695540805,13.98467766605725
0.002960154902914479,-2.5774213180428593,5.707429143883574,0.625689307462882,-5.989190459811844,13.983183626841512
-0.022814058277514114,-2.637313222640978,5.713686036958203,0.7655211437312971,-5.873209699182139,13.917299971459919
-0.049187190503923894,-2.696045319632799,5.7213412483955155,0.9046941434458963,-5.718617072909732,13.769620537207048
-0.07614764370025189,-2.7532314903618964,5.730388189829974,1.0423903488179667,-5.50996544392824,13.519362605409057
-0.10367995860387084,-2.808331144801179,5.740812093318154,1.1775839748720571,-5.229261984174887,13.142496428033626
-0.13176327005188262,-2.860623764642928,5.7525879330668745,1.3090089391523934,-4.856442584420383,12.612444775271081
-0.1603695076983119,-2.9091881904871317,5.765678022458398,1.4351333869051042,-4.370448877249133,11.901635613820005
-0.1894613896031832,-2.952892679259623,5.780029356327449,1.5541497430433042,-3.7511089999683023,10.98418684522814
-0.21899031639577943,-2.990403769259306,5.795570853757882,1.6639916114955855,-2.9819396625510675,9.83988099567686
-0.2488943540883725,-3.0202231658848167,5.812210769872838,1.762390421452354,-2.0537729165308876,8.459282334113695
-0.2790965857472206,-3.0407608950501257,5.829834674087361,1.846983244793491,-0.9687467253803177,6.849332659680736
-0.3095041946977219,-3.050448362303929,5.848304506535296,1.9154765713902984,0.25625249210470985,5.038126166542986
-0.3400086783207612,-3.0478858373828817,5.867459272249199,1.9658578330557281,1.5879523309971875,3.077081574871689
-0.37048753669459,-3.03200631407291,5.887117850579757,1.9966286488044451,2.9780665759573255,1.038813482084659
-0.4008075998353191,-3.0022256483133365,5.907084137067801,2.007016783625292,4.368206545520517,-0.9900285332601922
-0.4308298563184525,-2.9585435828581312,5.927154304904054,1.99711649829269,5.697653581525812,-2.9199671679236983
-0.4604152921470338,-2.901567047042873,5.947125469886981,1.967916826613453,6.91209635761734,-4.67123842479032
-0.48943096261746255,-2.8324460834667,5.966804638153115,1.9212044423655499,7.9709130653104125,-6.184217650958425
-0.5177554234521295,-2.7527369528135957,5.98601668257677,1.8593622658559656,8.851121345096535,-7.425060806314031
-0.5452827929802655,-2.6642257393626303,6.00461030523533,1.7851116577928254,9.5474339902544,-8.385765646760264
-0.5719250503738919,-2.568751399460086,6.022461421813258,1.7012540013252229,10.069199048717728,-9.079766424977043
-0.5976125643684927,-2.4680594089729087,6.03947396182651,1.6104563370754525,10.435732856343725,-9.535215929976067
-0.6222931584582219,-2.3637020804094715,6.055578525197265,1.515104177775692,10.671528702837458,-9.78807391530443
-0.6459301792623166,-2.2569867933810968,6.070729566975022,1.4172234386226477,10.80232063059131,-9.876406019536397
-0.6685000471961275,-2.1489635870751838,6.084901801361248,1.3184593784272838,10.852386740138083,-9.83644964759017
-0.6899896830668794,-2.040439719673803,6.098086395145521,1.2200948819513822,10.843038576851631,-9.700377828588657
-0.7103940802636174,-1.9320093339052866,6.110287343965035,1.1230911036654956,10.7920267319239,-9.495380897535966
-0.7297141736026702,-1.8240890665860476,6.12151825500169,1.028137294690136,10.71354795868238,-9.243619175317907
-0.7479550642685306,-1.7169535869992238,6.131799627948592,0.9357011029369569,10.618586439669267,-8.96266515190779
-0.7651246001385229,-1.6107677226025312,6.141156638977962,0.846074451417879,10.515398861225727,-8.666162188330528
-0.7812322773645483,-1.505613733990274,6.14961738349214,0.7594128295345737,10.410025149748256,-8.364529142909847
-0.796288414704451,-1.4015134824927915,6.157211511787486,0.6757675381054752,10.306761229286128,-8.065618012580819
-0.8103035495293789,-1.2984458701999302,6.163969187168541,0.595111357979667,10.208566059735594,-7.775283122174617
-0.8232880082313782,-1.1963602096025743,6.169920300748338,0.5173585267579208,10.11739633616148,-7.497850877032029
-0.8352516103274039,-1.0951862462409594,6.175093886015917,0.4423800179876005,10.034473221449135,-7.236495139607633
-0.8462034727898136,-0.994841514026468,6.179517686195793,0.37001506659152417,9.960490220907843,-6.99353037053544
-0.8561518879300782,-0.8952366118173896,6.183217836861709,0.3000797628861698,9.895772526025654,-6.770636673681641
-0.8651042540482521,-0.796278886557133,6.1862186344905705,0.23237339614935337,9.840397598732386,-6.56903028920626
-0.8730670429138234,-0.6978749105698091,6.188542368452064,0.16668309325729075,9.794285460371057,-6.389591356217103
-0.8800457920195215,-0.5999320559660986,6.190209199384637,0.10278717969511972,9.757265645040123,-6.2329587184307975
-0.8860451125791825,-0.5023593995156973,6.191237071181589,0.04045759251081174,9.729126345746831,-6.099599569283147
-0.8910687065743395,-0.405068136058229,6.191641647106697,-0.020538403182019736,9.70965003446538,-5.989859994093104
-0.8951193879349217,-0.3079716357135752,6.191436263074877,-0.08043700312295077,9.698638799773986,-5.904001010672867
-0.8981991042920575,-0.21098524771583535,6.190631893043648,-0.13947701322967943,9.695931803558151,-5.842223520772452
-0.9003089567692159,-0.11402592968025384,6.189237122911351,-0.19789924843740395,9.701416579744338,-5.80468462196329
-0.9014492160660184,-0.017011763882810463,6.187258130426977,-0.2559460946570368,9.715035346826536,-5.791506944028859
-0.9016193337048465,0.0801385895854549,6.184698669480406,-0.3138611640973254,9.736787046397163,-5.802782016745842
-0.9008179478089919,0.17750646004942655,6.181560057839433,-0.3718889842647838,9.766725418834099,-5.838568101165958
-0.8990428832084977,0.27517371423776754,6.177841167996785,-0.43027466527644337,9.80495305407234,-5.8988823813538565
-0.89629114606612,0.37322324477849095,6.173538421344021,-0.48926348908998196,9.851610980970223,-5.9836868772690055
-0.8925589136183352,0.47173935458819316,6.168645786453121,-0.549100357862672,9.906862954580763,-6.092866861893406
-0.8878415200724532,0.5708079841340008,6.163154782874495,-0.6100290264816061,9.970873137404544,-6.226199905656789
-0.8821334402311132,0.6705167155080463,6.157054492609679,-0.672291025538174,10.04377531785234,-6.3833128857960455
-0.8754282730760327,0.7709544686865697,6.150331582354297,-0.7361241543961344,10.12563113510518,-6.563623343430085
-0.867718728389167,0.8722107800376215,6.1429703408103355,-0.8017603878304352,10.216373953986519,-6.766260404893616
-0.8589966205887908,0.9743745195774868,6.134952736932031,-0.8694229918793714,10.315734032994676,-6.989959074737522
-0.8492528753930159,1.0775318599074335,6.126258507013238,-0.9393225826267466,10.423139448842225,-7.232920051790666
-0.8384775567939415,1.1817632543958558,6.11686528118697,-1.0116517831446532,10.537585918748897,-7.492625372515818
-0.826659924249983,1.2871391135833448,6.106748763355524,-1.0865780368698115,10.657467315886157,-7.765598319962263
-0.8137885331141496,1.3937137867422063,6.095882982986826,-1.164234020069434,10.780357571359561,-8.047094536794333
-0.7998513952467275,1.5015173624558018,6.084240642786131,-1.2447049654373774,10.902734322561503,-8.330710897600568
-0.7848362216221695,1.6105447056814168,6.0717935931317575,-1.3280120744133832,11.01963604617445,-8.607900774103982
-0.7687307745653553,1.7207410661431612,6.058513472387624,-1.414091082154423,11.124249087570554,-8.867391118605859
-0.7515233639039237,1.8319835570188667,6.044372561566079,-1.5027649933404816,11.207431442216931,-9.094511810881102
-0.733203528333735,1.9440578714410361,6.029344911632674,-1.5937101114492926,11.257199906852076,-9.27047599271621
-0.7137629496193246,2.056629870509557,6.013407810518181,-1.6864148713764548,11.258240757065707,-9.371697966340987
-0.6931966509142291,2.169212278080214,5.996543661804417,-1.7801318510398647,11.191555733107554,-9.369308750639531
-0.671504528133427,2.2811278354112896,5.978742343294018,-1.87382493854626,11.034426096337087,-9.229130343671907
-0.6486932497793141,2.3914720963746605,5.960004093908555,-1.966116241982979,10.760960200192315,-8.912487247569425
-0.6247785288155675,2.4990816983765836,5.9403429314887255,-2.0552411144586733,10.343558476891667,-8.378331092556916
-0.5997877118318017,2.6025172831455,5.919790520344138,-2.1390244253842425,9.755629567149976,-7.587154101126194
-0.5737625390003467,2.700073578817,5.898400276090296,-2.2148959663955043,8.975738160945552,-6.506950020666102
-0.5467618032121767,2.7898309604264555,5.876251316426341,-2.2799654666021656,7.992971038054321,-5.12092211933522
-0.5188634936079122,2.8697606708069987,5.853451661760319,-2.3311746877955177,6.812655703414811,-3.4357119560360396
-0.4901658868998422,2.9378872278411468,5.830139914882364,-2.365531807355878,5.460822207705065,-1.4878643378022118
-0.46078701462143073,2.9924954499181973,5.806484596808805,-2.3804104507339,3.9853779522751576,0.6543603704986397
-0.43086206012224876,3.032349229440949,5.782680492301466,-2.3738668470289137,2.45239308048853,2.8961204375085616
-0.40053856782783925,3.0568731602458343,5.758941823831178,-2.344905642653828,0.93739617766706,5.128249081871507
-0.36996983622538093,3.0662471220225047,5.735492767404639,-2.293623151835113,-0.4863486280319679,7.243874822265583
-0.3393073650051559,3.061383635742185,5.712556535886288,-2.2211844036124573,-1.759128718872482,9.154531449448426
-0.30869352864773403,3.04379234855346,5.6903446918501634,-2.129639089117973,-2.842293865479706,10.801016145050799
-0.27825560516219944,3.015369409898663,5.669048300958984,-2.0216289276674653,-3.7203393701632237,12.156616658255201
-0.2481019110632128,2.978166016197031,5.648832011682309,-1.9000627610849132,-4.398096614726563,13.223410601166696
-0.2183202509012425,2.9341850500497655,5.62983138407146,-1.7678286550732463,-4.8950255040628,14.024413199987782
-0.18897840040074484,2.8852347950091373,5.612153097520728,-1.6275845230733685,-5.238844179403779,14.594712666188045
-0.16012605245065348,2.8328463532150994,5.595877252289994,-1.4816373964114882,-5.460085455232762,14.9738419105046
-0.1317975889185025,2.7782454986627716,5.5810608783258795,-1.3318989773064422,-5.588272965149348,15.200382774005575
-0.10401513393187478,2.722362769011278,5.567741888552815,-1.1798951495663865,-5.649717143671064,15.308824453124357
-0.076791506241762,2.6658655975745673,5.555942937057151,-1.026806905035143,-5.666578540331345,15.328197148796574
-0.05013285026601632,2.609199812171254,5.5456748680068,-0.8735249335471772,-5.65676430589398,15.281881150711875
-0.02404085214430378,2.5526321691123144,5.536939618671328,-0.7207061220400585,-5.634287051064009,15.188075452657904
0.0014854695468193672,2.4962892986016745,5.529732557450927,-0.5688253675134795,-5.609824496800547,15.060559866664878
0.02644836253283611,2.440191053633669,5.524044303775793,-0.41821976884683065,-5.591320066611278,14.90952539727211
0.05085027306917281,2.384277852967556,5.5198621060873245,-0.26912451487410954,-5.584540008483455,14.742352550540021
0.07469305159884837,2.3284324528827214,5.517170860938584,-0.12170098936870932,-5.593551210833272,14.564285101621925
0.09797737612767558,2.2724969407743885,5.515953851044896,0.023941861647509943,-5.621111727995541,14.378985952014986
0.12070234553541948,2.216285823494433,5.516193269661372,0.1677317211676598,-5.668980085971332,14.18898161506482
0.1428652037703638,2.15959602263472,5.517870586873048,0.309621537318308,-5.738155227768119,13.996010232858623
0.16446116399671099,2.1022144703570387,5.520966802246232,0.44958163964689424,-5.829060245425164,13.801290083584881
0.18548330870028137,2.043923867902787,5.525462618642701,0.5875945404827431,-5.941682149625521,13.605724517360215
0.20592254737930923,1.9845070464065317,5.5313385640475285,0.7236517856563452,-6.075678160970395,13.410056999461577
0.22576761784337454,1.9237502647968279,5.538575081904092,0.857752355650961,-6.2304570542227875,13.214987406657983
0.24500512049134282,1.8614456942546,5.547152605460602,0.9899022297175408,-6.405242267225031,13.021258367666288
0.2636195774338888,1.7973932715823497,5.557051627757778,1.1201148133942036,-6.599121920028272,12.829718435868019
0.2815935101497123,1.731402052382067,5.56825277589172,1.2484119977528838,-6.811089596992646,12.641367262143714
0.298907530673533,1.6632911564121406,5.580736895869249,1.374825670374321,-7.0400786996869185,12.457386663083678
0.3155404422376544,1.5928903694152714,5.594485152572992,1.4993995370051576,-7.284992338944897,12.279160494524941
0.3314693459318071,1.5200404460258223,5.609479147943044,1.622191141950407,-7.544730054844104,12.108285475954938
0.3466697503920653,1.4445931454773813,5.625701059362548,1.7432739967099562,-7.8182120903422465,11.946574503468504
0.3611156818468391,1.3664110245739587,5.6431337993296475,1.8627397417446412,-8.104401457850747,11.796053477293416
0.3747797920925787,1.2853670099954513,5.6617611967470935,1.9807002765175754,-8.402323590228223,11.658952196680861
0.38763346219253325,1.2013437740931692,5.681568199512269,2.097289798484384,-8.711082920133148,11.537689381902926
0.3996468999334649,1.1142329448918378,5.702541097497114,2.2126666923034133,-9.029875242004293,11.434851306840105
0.41078922938238327,1.0239341924717948,5.724667764420148,2.3270152053718145,-9.357994128448269,11.353162791901626
0.4210285713071012,0.9303542511873122,5.747937916473866,2.440546833290831,-9.69482893317796,11.295448323281725
0.4303321138189743,0.8334059618555326,5.772343384806774,2.553501316523648,-10.03985093141901,11.264579710878378
0.4386661734375296,0.7330074525413425,5.797878397972011,2.666147113632432,-10.392582813669287,11.263404815097882
0.445996247962943,0.6290816244046495,5.824539869108335,2.7787811617834106,-10.752544911541813,11.294649252625163
0.4522870642069895,0.5215561752892314,5.8523276807261695,2.8917276543096624,-11.119169003479739,11.360779360537334
0.45750262595988184,0.410364485254434,5.881244957269266,3.005335447915036,-11.491667086692667,11.46380971636262
0.46160627081242617,0.29544781438750733,5.911298311748417,3.119973545078662,-11.868837841953756,11.605031785566286
0.46456074895630123,0.17675943596796978,5.942498047199203,3.2360238629343248,-12.248787411780732,11.784631415769834
0.46632834331598094,0.05427156185016245,5.974858285828547,3.353870177092023,-12.628533460586345,12.001151719435
0.46687105893448255,-0.07201377275570099,6.008396987599467,3.473881694286373,-13.003452622339099,12.250744752326938
0.46615092120692553,-0.202048298979092,6.043135804542331,3.596389141809642,-13.36652271495795,12.52614203247373
0.4641304382171346,-0.3357135261286715,6.079099695960427,3.7216505621343794,-13.707305965363226,12.815264952436676
0.4607733029558479,-0.47278658578230376,6.116316201581771,3.849803211658746,-14.010625415350237,13.099401644846704
0.45604543709802486,-0.6128928399358061,6.1548142336983584,3.980797228107213,-14.254918147170107,13.350916730624487
0.4499165086986668,-0.7554420214075072,6.194622205979431,4.1143063954134576,-14.410331335582368,13.530569710883372
0.4423620884845917,-0.8995453347633309,6.235765269933565,4.249612092522291,-14.436799454898086,13.584751103112445
0.4333666351369584,-1.0439133293123117,6.278261390858788,4.385459603553415,-14.282651555000486,13.4433711128544
0.42292750184383526,-1.1867398448623165,6.322115986894322,4.519893314681959,-13.884777751643435,13.019800198543775
0.4110601033952121,-1.3255876223787508,6.367314920041141,4.650091316667397,-13.171976322841894,12.215089614602075
0.3978042271714246,-1.4573073856071699,6.413815833207815,4.772242212813418,-12.073524186996359,10.929307535211619
0.3832311533153529,-1.5780426274771335,6.46153825533595,4.881535288165534,-10.534605162024167,9.082304660057302
0.36745072704058157,-1.683388679097375,6.5103536082176054,4.972358334766106,-8.538027896123497,6.643233452183282
0.3506168402496078,-1.7687689580586101,6.5600771915652665,5.038790669287939,-6.12714306988739,3.661942798424811
0.33292915066902173,-1.830040388757484,6.610465098258146,5.075410097272187,-3.419525525678112,0.28800051445048624
0.3146287467814469,-1.8642356440142651,6.661219199230868,5.078290102416692,-0.5993972250344798,-3.2391364415591153
0.29598639034130425,-1.87022961626461,6.712002100255035,5.0458987380011004,2.1160179773330365,-6.635412810945436
0.2772840941786582,-1.8490694364912796,6.762461087635047,4.979544609891646,4.526250404588018,-9.639300907818345
0.2587933998137454,-1.8038069324453994,6.812256533733963,4.883151600813463,6.491924628579793,-12.071358497789854
0.24075533048929137,-1.7388876861596014,6.861088049742098,4.762438015835564,7.954881858665333,-13.860709086556673
0.22336645362769536,-1.6593388675729481,6.908712429900453,4.623830924969997,8.930465174033975,-15.033815222326577
0.20677306495196587,-1.5700342158326084,6.954950739150154,4.473492772746732,9.482695358662816,-15.680433056215653
0.1910727227936398,-1.4752072622459802,6.999685666877621,4.316688442184575,9.6968289885104,-15.916528326416625
0.17632065017117998,-1.3782389723608761,7.042852551299466,4.157523158920409,9.658659692446438,-15.856721253161442
