th1 (rad),w1 (rad/s),th2 (rad),w2 (rad/s),a1 (rad/s^2),a2 (rad/s^2)
1.9401594707335639,-0.8444035844695905,4.277455713740284,-2.3984925024196007,-5.481498385699378,4.571917812066682
1.9317154348888679,-0.8992185683265843,4.253470788716088,-2.352773324298934,-5.6691665076049755,4.326605596437887
1.9227232492056021,-0.955910233402634,4.229943055473099,-2.309507268334555,-5.85635015906026,4.071096389344397
1.9131641468715759,-1.0144737349932367,4.206847982789753,-2.268796304441111,-6.042649466567277,3.8048487054277165
1.9030194095216435,-1.0749002296589094,4.184160019745343,-2.230747817386834,-6.227755052116042,3.5272233897651053
1.8922704072250545,-1.1371777801800698,4.161852541571474,-2.195475583489183,-6.411430402414962,3.23750725282411
1.8808986294232537,-1.2012920842042194,4.139897785736583,-2.1631005109609416,-6.593496585472219,2.9349333237364874
1.8688857085812116,-1.2672270500589415,4.118266780626973,-2.133751177723577,-6.773818761635766,2.618698369418303
1.8562134380806221,-1.3349652376752992,4.096929268849737,-2.107564194029394,-6.9522939924434555,2.287978257133088
1.8428637857038692,-1.4044881775997338,4.075853626909444,-2.084684411458063,-7.128839905070723,1.941941675503534
1.828818903927872,-1.475776576650441,4.055006782794863,-2.0652649947030275,-7.303383821014108,1.5797626753401803
1.8140611381613676,-1.548810414860582,4.034354132847833,-2.049467367949626,-7.475852004286114,1.200632447157792
1.7985730340127617,-1.623568934903443,4.013859459168336,-2.037461043478048,-7.646158726935598,0.8037707161439308
1.7823373446637272,-1.700030522172799,3.993484848733556,-2.0294233363166083,-7.814194888734506,0.38843710628054057
1.7653370394419992,-1.778172471060144,3.97319061537039,-2.0255389652538027,-7.979815964273813,-0.04605719844450249
1.7475553147313978,-1.8579706307028823,3.952935225717852,-2.0259995372382478,-8.142829085567476,-0.5003371882675772
1.728975608424369,-1.939398921558557,3.9326752303454695,-2.0310029091209234,-8.30297910277807,-0.9749508692105829
1.7095816192087834,-2.0224287125863376,3.9123652012542602,-2.0407524178130294,-8.459933501138783,-1.4703549444192239
1.68935733208292,-2.1070280475977254,3.89195767707613,-2.0554559672572217,-8.613266089892207,-1.986899091868461
1.6682870516069428,-2.1931607084966473,3.871403117403558,-2.0753249581759063,-8.762439420450956,-2.524808625174652
1.6463554445219764,-2.2807851027011568,3.8506498678217986,-2.100573044427653,-8.90678593733874,-3.08416536279017
1.6235475934949648,-2.3698529620745443,3.8296441373775223,-2.1314146980555546,-9.04548791803804,-3.664886580032924
1.5998490638742193,-2.4603078412549246,3.8083299903969667,-2.168063563855884,-9.17755631773858,-4.2667019802252
1.57524598546167,-2.5520834044323104,3.7866493547584077,-2.210730583658136,-9.301808702977471,-4.889128697281434
1.549725151417347,-2.645101491462085,3.764542048921826,-2.25962187063095,-9.416846534746597,-5.5314444333947455
1.523274136502726,-2.7392699568095513,3.7419458302155166,-2.3149363149648976,-9.521032146780335,-6.192658942216293
1.4958814369346305,-2.8344802782773546,3.7187964670658675,-2.3768629043870604,-9.612465857781771,-6.871484189255757
1.467536634151857,-2.9306049368551723,3.6950278380219967,-2.4455777462796178,-9.688963755951034,-7.566303655081923
1.4382305847833052,-3.027494574414683,3.6705720605592007,-2.521240782830437,-9.748036798257846,-8.275141389835573
1.4079556390391583,-3.1249749423972615,3.6453596527308965,-2.6039921967287927,-9.786871972679561,-8.99563157479239
1.3767058896151858,-3.222843662124057,3.6193197307636087,-2.6939485124767164,-9.802316375822231,-9.724989492273895
1.3444774529939452,-3.3208668258822795,3.5923802456388416,-2.7911984073994556,-9.790865157498517,-10.459984942447562
1.3112687847351223,-3.418775477457265,3.564468261564847,-2.895798256823931,-9.748654374826813,-11.19691926792317
1.2770810299605497,-3.516262021205533,3.5355102789966075,-3.007767449503163,-9.671459879115506,-11.931607249237821
1.2419184097484943,-3.6129766199966884,3.505432604501576,-3.1270835219955413,-9.554703428843677,-12.659365213761028
1.2057886435485274,-3.708523654285125,3.4741617692816202,-3.2536771741331516,-9.393467283582604,-13.375006759118351
1.168703407005676,-3.8024583271209513,3.4416249975402886,-3.387427241724335,-9.182518591848218,-14.072847537900424
1.1306788237344665,-3.8942835130394333,3.407750725123045,-3.5281557171033393,-8.916344948693954,-14.746720598494267
1.091735988604072,-3.9834469625263726,3.372469167952012,-3.675622923088282,-8.589202576353559,-15.390003850207712
1.0519015189788083,-4.069338988289908,3.3357129387211293,-3.829522961590359,-8.195178683032536,-15.995661348440745
1.0112081290959092,-4.151290775120233,3.2974177091052255,-3.9894795750747667,-7.728269686127839,-16.5563003087341
0.9696952213447069,-4.228573471981512,3.2575229133544776,-4.155042578162107,-7.182477141207707,-17.064246083652314
0.9274094866248918,-4.300398243393588,3.2159724875728566,-4.325685038998631,-6.551923372796152,-17.511637785095854
0.8844055041909559,-4.36591747712155,3.17271563718287,-4.50080141684959,-5.830988905053843,-17.89054778947547
0.8407463294197404,-4.424227366172088,3.1277076230143743,-4.679706894744344,-5.014473749965915,-18.19312896231097
0.7965040557580195,-4.474372103671747,3.080910554066931,-4.861638184367454,-4.097784293179599,-18.411793960117926
0.751760334721302,-4.515349946603544,3.0322941722232564,-5.0457561239686335,-3.077146742927636,-18.53943121717311
0.7066068352552666,-4.54612141403282,2.98183661098357,-5.231150436140364,-1.949846658696153,-18.569661935934697
0.6611456211149384,-4.565619880619781,2.929525106622166,-5.416847055499711,-0.7144917248206686,-18.49714124764046
0.6154894223087406,-4.572764797867988,2.875356636067169,-5.601818467976116,0.6287085154322208,-18.31790435071128
0.5697617743300607,-4.566477712713666,2.819338451387408,-5.784997511483229,2.07765689247174,-18.029754577359117
0.524096997202924,-4.545701143788948,2.7614884762725755,-5.96529505725682,3.628093480607259,-17.63268484416749
0.4786399857650345,-4.509420208982876,2.7018355257000075,-6.141621905698495,5.2733542485309615,-17.129316948362355
0.43354578367520574,-4.456686666497566,2.6404193066430226,-6.312915075182119,7.004193100256048,-16.525335219557686
0.3889789170102301,-4.386644735495006,2.5772901558912014,-6.478168427377695,8.808702261883857,-15.829883163648535
0.34511246965528003,-4.298557712876168,2.5125084716174246,-6.63646725901418,10.672368754173334,-15.055885479793497
0.30212689252651836,-4.191834025334434,2.4461437990272827,-6.787026113812115,12.578303353307025,-14.220255102932244
0.260208552273174,-4.066050991801364,2.3782735378891617,-6.929228664841438,14.507671637235918,-13.343947702017697
0.21954804235516037,-3.920974275429005,2.3089812512407475,-7.062668141861615,16.440343762498483,-12.451835932845201
0.18033829960087033,-3.7565708378040203,2.2383545698221314,-7.187186501190068,18.355760963240478,-11.57239334810003
0.14277259122283012,-3.5730132281716154,2.166482704810231,-7.302910434671068,20.233994305364632,-10.737202430581293
0.10704245894111397,-3.3706732851179693,2.09345360046352,-7.410282458976881,22.056948316371972,-9.980330325821024
0.07333572608993427,-3.1501038019542493,2.0193507758737512,-7.510085762235091,23.80964312584521,-9.337645670306864
0.04183468807039178,-2.912007370695797,1.9442499182514004,-7.6034622189381595,25.481498232335724,-8.846175879532387
0.012714614363433806,-2.6571923883724398,1.8682152960620189,-7.691923977733484,27.067542511073786,-8.543622149738429
-0.01385730952029059,-2.386516963261702,1.791296056284684,-7.777360199230868,28.569490024703075,-8.46815644113463
-0.037722479152907606,-2.1008220630146712,1.7135224542923753,-7.862041763642214,29.996648096615697,-8.65862014399176
-0.05873069978305432,-1.8008555820485141,1.6349020366559532,-7.948627965082132,31.366658160544755,-9.155229097728341
-0.07673925560353946,-1.4871890004430666,1.555415757005132,-8.040180256059415,32.70610284412807,-10.000865344398134
-0.09161114560797012,-1.1601279720017859,1.4750139544445378,-8.140188909503395,34.05103195202283,-11.242999835667081
-0.10321242532798798,-0.8196176524815575,1.3936120653495039,-8.252618907860066,35.447445045245864,-12.936228121571121
-0.11140860185280356,-0.46514320202909887,1.3110858762709032,-8.381981189075777,36.95168120382964,-15.14527156404235
-0.11606003387309455,-0.09562638999080247,1.2272660643801454,-8.533433904716201,38.63042822444833,-17.94799811868098
-0.11701629777300257,0.29067789225368085,1.1419317253329835,-8.712913885903012,40.55949967501742,-21.437312823602017
-0.11410951885046576,0.696272889003855,1.0548025864739534,-8.927287014139033,42.81924899492667,-25.719121349217076
-0.10714678996042722,1.1244653789531216,0.9655297163325631,-9.184478227631203,45.48163055452591,-30.899778512014155
-0.095902136170896,1.5792816844983806,0.8736849340562511,-9.493476012751344,48.5776297765698,-37.04790473468005
-0.0801093193259122,2.0650579822640784,0.7787501739287377,-9.863955060098144,52.02049083639447,-44.097100640644896
-0.059458739503271414,2.585262890628023,0.6801106233277563,-10.304926066504594,55.434851169001746,-51.62053639282304
-0.03360611059699119,3.1396114023180406,0.5770613626627104,-10.821131430432825,57.80724420368771,-58.358238639616594
-0.0022099965738107824,3.7176838443549176,0.4688500483583821,-11.404713816828991,56.89004330791359,-61.39473206610384
0.0349668418697384,4.286584277434054,0.3548029101900922,-12.01866113749003,48.63890429021888,-55.354092440409474
0.07783268464407894,4.772973320336242,0.2346162988151919,-12.572202061894124,28.231335774535687,-33.720387108444605
0.12556241784744138,5.0552866780815995,0.10889427819625064,-12.90940593297857,-4.591931648520824,3.952187647117756
0.17611528462825737,5.009367361596391,-0.020199781133535072,-12.869884056507393,-39.243734827171735,43.582587275964215
0.22620895824422127,4.616930013324674,-0.148898621698609,-12.434058183747752,-61.414980924685814,66.40812271604385
0.272378258377468,4.0027802040778155,-0.27323920353608655,-11.769976956587312,-68.17249593637605,69.23355905861081
0.31240606041824615,3.321055244714055,-0.3909389731019597,-11.077641366001204,-66.05086813689081,61.24374664673142
0.3456166128653867,2.660546563345147,-0.5017153867619717,-10.46520389953389,-61.05847626658274,50.43838587762414
0.37222207849883815,2.04996180067932,-0.6063674257573106,-9.960820040757648,-55.977872146316464,40.31809434166785
0.3927216965056313,1.4901830792161552,-0.7059756261648871,-9.557639097340969,-51.66646830453102,31.831424460225556
0.4076235272977929,0.973518396170845,-0.8015520171382968,-9.239324852738713,-48.22759503726571,24.989593165037054
0.41735871125950136,0.49124244579818793,-0.893945265665684,-8.989428921088344,-45.53354856271432,19.55626907022642
0.42227113571748326,0.03590696017104472,-0.9838395548765675,-8.79386623038608,-43.411610797453314,15.278041718756482
0.4226302053191937,-0.39820914780348843,-1.0717782171804282,-8.641085813198515,-41.70068161029145,11.945357048263489
0.4186481138411588,-0.8152159639064029,-1.1581890753124133,-8.52163224271588,-40.26400871806104,9.39890572070744
0.4104959542020948,-1.2178560510870133,-1.243405397739572,-8.427643185508805,-38.9886901833679,7.521095698381258
0.39831739369122465,-1.6077429529206924,-1.3276818295946602,-8.352432228524991,-37.78225302402954,6.225177123988626
0.3822399641620177,-1.9855654831609877,-1.4112061518799102,-8.290180457285105,-36.56947750203674,5.445538841992638
0.36238430933040783,-2.3512602581813553,-1.4941079564527613,-8.235725068865179,-35.29020610893771,5.1298598312399415
0.3388717067485943,-2.7041623192707323,-1.5764652071414131,-8.18442647055278,-33.8980755209456,5.233026693376653
0.311830083555887,-3.0431430744801884,-1.6583094718469409,-8.132096203619012,-32.35986872964022,5.7126030963605485
0.2813986528110851,-3.3667417617765905,-1.739630433883131,-8.074970172655407,-30.655138783321018,6.525678893356077
0.24773123519331922,-3.6732931496098007,-1.8203801356096851,-8.009713383721847,-28.775786331870886,7.626976361814249
0.21099830369722122,-3.9610510129285097,-1.9004772694469036,-7.933443620103704,-26.725343922981395,8.968102179420278
0.17138779356793613,-4.228304452158324,-1.9798117056479407,-7.843762598309501,-24.51781705181016,10.497803119689054
0.12910474904635288,-4.473482622676426,-2.058249331631036,-7.738784567112611,-22.176043080295255,12.163026822117038
0.08436992281958863,-4.695243053479378,-2.1356371773021623,-7.617154298891441,-19.729637868251245,13.910530300700312
0.03741749228479485,-4.8925394321618905,-2.2118087202910766,-7.478048995884437,-17.212687531631705,15.688742011162423
-0.011507902036824058,-5.064666307478207,-2.286589210249921,-7.3211615757728135,-14.661393320906633,17.449584992919657
-0.06215456511160613,-5.211280240687273,-2.359800826007649,-7.146665725843617,-12.11188351239885,19.150013424200665
-0.11426736751847885,-5.332399075811262,-2.431267483266085,-6.95516559160161,-9.598370519674765,20.753094511527728
-0.16759135827659147,-5.428382781008009,-2.5008191391821013,-6.7476346464863335,-7.1517668242026575,22.228564171288735
-0.22187518608667156,-5.499900449250036,-2.5682954856469644,-6.525349004773446,-4.798797649049648,23.552877548108693
-0.2768741905791719,-5.547888425740532,-2.633548975694699,-6.289820229292359,-2.561579026562475,24.70884658729582
-0.3323530748365772,-5.573504216006157,-2.6964471779876225,-6.0427317634194,-0.4575795747094228,25.684996945465826
-0.3880881169966388,-5.578080011753251,-2.7568744956218163,-5.785881793964742,1.5001416369486353,26.474784618142266
-0.4438689171141713,-5.5630785953837645,-2.814733313561464,-5.521133947783319,3.30253145817178,27.07579494184693
-0.49949970306800895,-5.530053280802047,-2.869944653039297,-5.25037599836485,4.944068758132587,27.489012985823365
-0.5548002358760294,-5.480612593220721,-2.922448413022946,-4.975485868506617,6.422290910372798,27.718215125779466
-0.6096063618082367,-5.416389684116993,-2.972203271708012,-4.698303717248822,7.7373636511424815,27.769495237450837
-0.6637702586494066,-5.339016047605568,-3.0191863088805,-4.420608764874314,8.891712263954775,27.650910923518204
-0.7171604191254624,-5.250098924966021,-3.0633923965292436,-4.144099655639132,9.889712923973274,27.372217908047812
-0.7696614083751225,-5.151201795726288,-3.104833393085635,-3.870377476558654,10.737431093390242,26.944654122875562
-0.8211734263323854,-5.043827484792385,-3.1435371678512216,-3.6009309353298984,11.442388797699145,26.380737297562046
-0.8716117011803093,-4.929403596815393,-3.1795464772045205,-3.337123562354278,12.013343134531253,25.69404835767735
-0.9209057371484632,-4.809270165470081,-3.2129177128280633,-3.0801830787775044,12.460062677788896,24.89898467742702
-0.968998438803164,-4.684669538692192,-3.243719543615838,-2.8311932320032343,12.793094659816926,24.010479491429244
-1.015845134190086,-4.556738592094023,-3.2720314759358704,-2.591088437088942,13.023522276068213,23.04369438200854
-1.0614125201110263,-4.426503369333341,-3.29794236030676,-2.3606514932688567,13.162716898863657,22.013699313236845
-1.1056775538043597,-4.294876200344705,-3.3215488752394484,-2.1405145001364883,13.222093645015589,20.935158574008316
-1.1486263158078067,-4.162655263894549,-3.3429540202408132,-1.931162914396405,13.212880346289449,19.822041333877518
-1.1902528684467522,-4.030526460431655,-3.3622656493847773,-1.7329425010576298,13.145909667467741,18.687372963968503
-1.2305581330510686,-3.899067363756977,-3.3795950743953536,-1.5460687714179449,13.031442336409318,17.54303879877391
-1.2695488066886385,-3.7687529403928837,-3.395055762109533,-1.3706383834302058,12.87902676632771,16.399646658534685
-1.3072363360925674,-3.6399626727296064,-3.408762145943835,-1.206641916844859,12.6973973411671,15.266449147591462
-1.3436359628198635,-3.5129886993179356,-3.420828565112284,-1.0539774253689445,12.49441078617589,14.151322186191958
-1.3787658498130428,-3.3880445914561768,-3.431368339365973,-0.9124642035070248,12.277017695644425,13.060792831222962
-1.4126462957276047,-3.2652744144997325,-3.4404929814010434,-0.7818562751947953,12.051264616073466,12.000107334852947
-1.445299039872602,-3.1447617683389977,-3.4483115441529915,-0.6618552018462658,11.822321122392506,10.973329505889192
-1.476746657555992,-3.0265385571150727,-3.454930096171454,-0.5521219067873738,11.594526009812785,9.983459565650843
-1.5070120431271428,-2.910593297016945,-3.460451315239328,-0.4522873111308654,11.37144692519226,9.03256455263327
-1.5361179760973123,-2.7968788277650223,-3.4649741883506366,-0.3619616656045327,11.15594832619899,8.121912646965885
-1.5640867643749625,-2.6853193445030326,-3.468593805006682,-0.28074253913487385,10.950263435450468,7.252105309469735
-1.5909399578199928,-2.575816710148528,-3.4714012303980306,-0.20822148604017648,10.756066723820723,6.4232026683956835
-1.616698124921478,-2.468256042910321,-3.4734834452584322,-0.14398945935621965,10.574544316228959,5.63483900690071
-1.6413806853505812,-2.362510599748031,-3.4749233398519945,-0.08764106928721255,10.406460499650759,4.886326428108115
-1.6650057913480616,-2.2584459947515234,-3.4757997505448666,-0.0387778050061314,10.252219189612465,4.176745768763779
-1.687590251295577,-2.1559238028553986,-3.4761875285949277,0.0029896526815063953,10.111919762634244,3.5050245958868738
-1.709149489324131,-2.054804605229056,-3.4761576320681127,0.03803989864037513,9.985407088133957,2.870002673034522
-1.7296975353764217,-1.9549505343477165,-3.475777233081709,0.06673992537072035,9.872315904263628,2.2704856547111194
-1.7492470407198988,-1.8562273753050802,-3.4751098338280015,0.08944478191783155,9.772109893454758,1.705287994029315
-1.7678093144729496,-1.7585062763705326,-3.474215386008823,0.1064976618581247,9.684115942559096,1.1732661642568878
-1.785394377236655,-1.6616651169449417,-3.473150409390242,0.11823032350069358,9.607554136667092,0.6733433300883228
-1.8020110284061044,-1.5655895755782707,-3.471968106155235,0.12496375680157681,9.541564050761767,0.2045265851241577
-1.817666924161887,-1.470173935070653,-3.4707184685872194,0.12700902265281838,9.48522788300008,-0.23408218146045587
-1.8323686635125935,-1.3753216562406523,-3.469448378360691,0.12466820083821382,9.437590928988952,-0.6432807984015209
-1.846121880075,-1.2809457469507628,-3.468201696352309,0.11823539285419862,9.397679837116392,-1.0237657956296975
-1.8589313375445078,-1.186968948579599,-3.4670193424237667,0.10799773489790165,9.364519018015187,-1.3761350281228752
-1.8708010270303037,-1.093323758399447,-3.465939365074788,0.0942363846166729,9.337145512093196,-1.700893188804634
-1.8817342646142983,-0.9999523032785151,-3.464997001228621,0.07722745272862656,9.314622551867274,-1.9984595311421138
-1.8917337876470834,-0.9068060777598423,-3.464224726701335,0.057242857417205424,9.296051993533698,-2.2691771881195737
-1.9008018484246818,-0.8138455578245054,-3.4636522981271627,0.03455108553600969,9.280585736792558,-2.513323534440163
-1.908940304002927,-0.7210397004565798,-3.4633067872718026,0.009417850191608061,9.26743620463576,-2.7311210939456805
-1.9161507010074927,-0.6283653384102222,-3.4632126087698865,-0.017893360747848745,9.255885916193382,-2.9227485453338806
-1.922434354391595,-0.5358064792482884,-3.463391542377365,-0.047120846201187554,9.24529615588846,-3.088351427259087
-1.9277924191840778,-0.4433535176894038,-3.4638627508393767,-0.07800436047377843,9.235114720759213,-3.228052189642135
-1.9322259543609719,-0.35100237048181165,-3.4646427944441145,-0.11028488237019977,9.224882714263803,-3.341959282117366
-1.93573597806579,-0.2587535433391736,-3.4657456432678164,-0.14370447519137344,9.214240348389916,-3.4301750134549525
-1.9383235134991816,-0.16661113985527443,-3.4671826880197303,-0.17800622532592297,9.2029317155499,-3.4928019578267806
-1.9399896248977344,-0.07458182269977542,-3.4689627502729894,-0.21293424490419077,9.190808496618933,-3.5299477251625744
-1.9407354431247321,0.017326262266413914,-3.4710920927220315,-0.24823372215581652,9.177832580651861,-3.5417279537657387
