th1 (rad),w1 (rad/s),th2 (rad),w2 (rad/s),a1 (rad/s^2),a2 (rad/s^2)
4.045838254887679,2.30115466258817,3.2083123606122914,-2.114691252540059,5.806334534095804,0.7015320180634211
4.068849801513561,2.3592180079291283,3.187165448086891,-2.107675932359425,5.787797982535935,1.062105738827295
4.092441981592851,2.4170959877544878,3.166088688763297,-2.0970548749711524,5.787904649705679,1.433512972674352
4.116612941470397,2.4749750342515444,3.1451181400135853,-2.082719745244409,5.8084689714026565,1.8161997264297378
4.141362691812912,2.5330597239655708,3.1242909425611414,-2.0645577479801114,5.8510651009583485,2.2112189710850605
4.166693289052567,2.5915703749751544,3.1036453650813405,-2.042445558269261,5.917078409066664,2.620183990912942
4.1926089928023185,2.650741159065821,3.083220909498648,-2.0162437183601316,6.0077573464651435,3.0452208041944426
4.2191164043929765,2.7108187325304725,3.0630584723150465,-1.9857915103181871,6.124262373139488,3.488923331774806
4.246224591718281,2.7720613562618674,3.0432005572118648,-1.9509022770004392,6.267709575635354,3.954313408464271
4.2739452052809,2.834738452018221,3.0236915344418605,-1.9113591429157966,6.439207314973259,4.444806330116788
4.302292589801082,2.8991305251679536,3.0045779430127024,-1.8669110796146287,6.639884735201112,4.964181436745716
4.331283895052762,2.9655293725199647,2.9859088322165563,-1.8172692652471716,6.8709112160861485,5.516556229034483
4.360939188777961,3.0342384846808264,2.9677361395640847,-1.7621037029568267,7.133505892937099,6.106361653007305
4.391281573624769,3.1055735436101974,2.9501151025345163,-1.7010400864267536,7.4289362220496,6.738315405340637
4.422337309060871,3.1798629058306935,2.9331047016702487,-1.6336569323733472,7.758504275404926,7.417389351897715
4.454135938119178,3.2574479485847427,2.9167681323465153,-1.5594830388543701,8.123519038329274,8.148766368649834
4.486710417605026,3.3386831389680354,2.9011733019579715,-1.4779953751678718,8.525252497587715,8.937781081599002
4.520097248994706,3.4239356639439125,2.8863933482062927,-1.3886175643518819,8.964876791894287,9.789838103934686
4.554336605634146,3.5135844318628555,2.872507172562774,-1.290719183312535,9.443379214880006,10.710300487215108
4.589472449952774,3.6080182240116554,2.859599980729649,-1.183616178440384,9.96145150030849,11.704340314710166
4.625552632192891,3.7076327390147403,2.847763818945245,-1.0665727752932823,10.51934970510399,12.776742834935995
4.662628959583039,3.81282623606578,2.837098091192312,-0.9388053469439224,11.116721308774615,13.931655516287867
4.700757221943697,3.923993449153526,2.827710037722873,-0.7994887917810437,11.752397093744445,15.17227425972737
4.739997156435232,4.041517420090971,2.8197151498050625,-0.64776604918377,12.424147239574804,16.50046120982037
4.780412330636142,4.165758892486719,2.813237489313225,-0.4827614370855663,13.128404172340137,17.916292730379183
4.822069919561009,4.29704293421012,2.8084098749423694,-0.3035985097817745,13.859959370788872,19.41754278485272
4.8650403489031095,4.4356425279180085,2.8053738898445517,-0.10942308193324729,14.611647769187702,20.999116746771985
4.90939677418229,4.581759005609886,2.804279659025219,0.10056808553447258,15.374041621614385,22.652463868186143
4.955214364238389,4.73549942182603,2.8052853398805637,0.327092724216334,16.1351853140481,24.365013012497307
5.002569358456649,4.896851274966511,2.808556267122727,0.5707428543413071,16.880412627375435,26.1196946527525
5.051537871206314,5.0656554012402655,2.8142636956661398,0.8319398008688321,17.592296562584767,27.894630088382687
5.102194425218716,5.241578366866113,2.822583093674828,1.110886101752659,18.250786364802718,29.663082337094572
5.1546102088873775,5.42408623051414,2.833691954692355,1.4075169251236046,18.833583477060273,31.39376677368705
5.208851071192519,5.6124220652847425,2.847767123943591,1.7214545928604752,19.31679440249489,33.05160717327332
5.264975291845366,5.805590009309691,2.8649816698721957,2.0519706645932083,19.675871462281275,34.59898907806126
5.323031191938464,6.002348723932504,2.885501376518128,2.397960555373821,19.886812284580177,35.99750518244321
5.383054679177788,6.201216846778306,2.909480982071866,2.7579356071982533,19.927539488246016,37.210110195112854
5.445066847645571,6.400492241660766,2.9370603381438483,3.130036709149382,19.779331866280167,38.20351618907131
5.509071770062179,6.598285560323568,2.9683607052353422,3.512071871040095,19.4281394490812,38.950581499005544
5.575054625665414,6.792566954814379,3.0034814239457432,3.9015776860301505,18.865599918653675,39.43239794170635
5.642980295213558,6.981222954000916,3.0424972008060447,4.295901665447214,18.089592209462246,39.639780923298126
5.712792524753567,7.162118876095539,3.085456217460517,4.692299474680196,17.10421625179981,39.5739233581057
5.784413713514523,7.333161038613537,3.132379212207319,5.088038708261253,15.919167236147507,39.246080888847025
5.857745323900658,7.492352710975012,3.1832595992899315,5.480499517149724,14.548561595482628,38.676291470565545
5.9326688510104075,7.637838326929838,3.2380645944614286,5.867262431855379,13.009349849163568,37.89126683894524
6.009047234279706,7.767931825421474,3.2967372187799824,6.246175100244832,11.319501680702967,36.921697409027374
6.0867265525339205,7.881126842228504,3.3591989697824305,6.615392074335106,9.496163246854238,35.79926670438999
6.165537820956206,7.976088474697046,3.4253528905257817,6.9733847413790055,7.553968748828534,34.55367298035554
6.245298705703176,8.051628162185331,3.495086737939572,7.318921471182561,5.50364945297374,33.209915509009505
6.325814987325029,8.106664656715068,3.5682759526513976,7.651020626272656,3.3510391184388335,31.786041363921697
6.40688163389218,8.140175047899456,3.6447861589141244,7.968881039911873,1.0965390906331165,30.291487334378917
6.488283384371174,8.151140438805788,3.7244749693132433,8.271795913255662,-1.2649123783794447,28.72610772762748
6.569794788759232,8.138491315021994,3.8071929284458,8.559056990531937,-3.7433224008439634,27.079960489309357
6.651179701909452,8.101058091013554,3.892783498351119,8.829856595425031,-6.352520999727953,25.333929664595207
6.732190282819587,8.037532881016274,3.9810820643053693,9.083195892070984,-9.108365017710696,23.46128076809108
6.812565611629751,7.946449230839167,4.071914023226079,9.317808699751895,-12.026203568854072,21.430257908194577
6.892030103938143,7.826187195150626,4.165092110223599,9.53211127883384,-15.117581575678239,19.20781164528013
6.970291975889649,7.675011379393844,4.260413223011937,9.724189395286642,-18.386257164806224,16.764465294715343
7.047042089683587,7.491148807745781,4.3576551169648035,9.891834048233795,-21.823779551594864,14.080159164886684
7.121953577761045,7.272911012229833,4.456573457447141,10.032635639882661,-25.405112074262483,11.150648042825818
7.194682687883343,7.0188598914872085,4.556899813845968,10.144142120310919,-29.085053269179287,7.993692623386653
7.264871286798216,6.728009358795416,4.658341235049077,10.224079046544785,-32.796427097642315,4.653957512671269
7.33215138038617,6.4000450878189925,4.760582025514525,10.270618621671499,-36.45106302444163,1.2053379997451072
7.39615183126436,6.035534457574576,4.86328821173124,10.28267200166895,-39.944343966340455,-2.2504583037981805
7.456507175840106,5.636091017911172,4.96611493174793,10.260167418630967,-43.16350092840963,-5.5897357384500355
7.512868086019218,5.2044560086270755,5.068716605934239,10.204270061246467,-45.99894626424437,-8.6767949255284
7.564912646105489,4.744466545984632,5.170759306546704,10.117502111991183,-48.35699946086652,-11.376736829241597
7.612357311565335,4.260896551375967,5.2719343276666155,10.003734743698766,-50.17171952829266,-13.56882848688926
7.654966277079095,3.75917935609304,5.3719716751036035,9.868046458829873,-51.413528462729765,-15.157810994866175
7.692558070640025,3.2450440714657423,5.470652139691902,9.716468348881211,-52.092989572373654,-16.080923518210884
7.725008511354683,2.724114175742006,5.567816823180714,9.555659113699102,-52.259292216235345,-16.309453418855345
7.752249653112103,2.2015212535796524,5.6633734143177055,9.392564579510548,-51.99426981712129,-15.844918914813398
7.7742648656479,1.6815785554084395,5.757299060112811,9.234115390362414,-51.40370543708712,-14.711082075695876
7.791080651201984,1.1675415010375683,5.849640214016436,9.087004569605455,-50.60801159248931,-12.9435508555726
7.80275606621236,0.6614613851126752,5.94051025971249,8.957569061049728,-49.7341281111687,-10.57869180013777
7.809370680063487,0.16412010400098814,6.030085950322988,8.85178214304835,-48.90988067668576,-7.643100713548545
7.8110118811034965,-0.3249787027658695,6.118603771753471,8.775351135912864,-48.261350167683055,-4.144234023617228
7.807762094075838,-0.8075922044427,6.2063572831126,8.733908795676692,-47.91320302327439,-0.06224768738133521
7.799686172031411,-1.286724234675444,6.293696371069367,8.733286318802879,-47.99145128539952,4.657159785871318
7.786818929684657,-1.7666387475294392,6.3810292342573955,8.779857916661593,-48.627568223648865,10.108788830787248
7.769152542209362,-2.252914429765928,6.468827813424012,8.880945804969466,-49.96178755552696,16.431320504910605
7.746623397911702,-2.752532305321197,6.557637271473706,9.045259010018572,-52.14061097617462,23.802517249978248
7.719098074858491,-3.2739384150829434,6.648089861573892,9.283284182518354,-55.296330963318276,32.41057002302154
7.686358690707661,-3.826901724716126,6.740922703399075,9.607389882748569,-59.47844497629234,42.36085271831042
7.6480896734604995,-4.421686174479049,6.836996602226561,10.030998409931673,-64.4650888464202,53.41886327414814
7.603872811715709,-5.066337062943251,6.937306586325878,10.565187042673154,-69.30004796137533,64.37354829347244
7.553209441086277,-5.759337542557005,7.04295845675261,11.208922525607878,-71.31732437506761,71.68333378686616
7.495616065660706,-6.472510786307681,7.155047682008688,11.92575586347654,-64.75441258654756,67.52641405507843
7.430890957797629,-7.120054912173156,7.274305240643454,12.601020004027324,-41.338776515127364,40.53968698094603
7.359690408675898,-7.53344267732443,7.400315440683727,13.006416873836784,0.7198242618846378,-11.832873436886016
7.284355981902654,-7.526244434705584,7.530379609422095,12.888088139467923,43.74600045799217,-65.5157773093432
7.2090935375555985,-7.088784430125662,7.6592604908167745,12.232930366374491,65.40900411192221,-90.37234202094355
7.138205693254342,-6.43469438900644,7.781589794480519,11.329206946165055,66.10989094412203,-87.50618515775516
7.073858749364278,-5.77359547956522,7.894881863942169,10.454145094587503,58.184683406466974,-73.8386490199308
7.016122794568625,-5.19174864550055,7.999423314888044,9.715758604388196,49.18843235312954,-59.39548874895192
6.96420530811362,-4.699864321969255,8.096580900931926,9.121803716898677,41.502765544181905,-47.13101171720099
6.917206664893927,-4.284836666527435,8.187798938100913,8.650493599726667,35.44894553753954,-37.28051854306079
6.874358298228652,-3.93034721115204,8.27430387409818,8.27768841429606,30.799199410701355,-29.40620631830319
6.835054826117132,-3.6223552170450266,8.35708075824114,7.9836263511130285,27.25443665367483,-23.02024513894956
6.798831273946682,-3.349810850508278,8.43691702175227,7.753423899723533,24.561485541308574,-17.725890777140954
6.765333165441599,-3.1041959950951923,8.514451260749507,7.5761649919521235,22.526902050852243,-13.226551693733853
6.734291205490647,-2.87892697458667,8.590212910669027,7.443899475014785,21.005898698595026,-9.306947061470085
6.705501935744781,-2.6688679876007195,8.664651905419175,7.350830004400084,19.88793731738855,-5.8139001714141365
6.678813255868774,-2.469988614426834,8.738160205463176,7.292691002685943,19.0838597208679,-2.6426518301854416
6.654113369724506,-2.2791500172181554,8.811087115490036,7.266264484384088,18.51488501489256,0.27100822951838216
6.631321869552324,-2.0940011670692296,8.883749760333878,7.2689745666792716,18.102818549949674,2.953674899759593
6.610381857881632,-1.9129729815697327,8.95643950600067,7.298511315676867,17.760937428872413,5.3934369227867895
6.591252128065935,-1.7353636072810086,9.029424619157439,7.352445684904735,17.38563777121121,7.536649687421699
6.573898491993124,-1.5615072295688965,9.102949076006485,7.427812181778952,16.85000718861843,9.284830477744439
6.558283419697435,-1.393007157682712,9.177227197824275,7.520660486556396,16.002051898415132,10.49584443966551
6.544353348120608,-1.2329866386985608,9.252433802689838,7.625618930953052,14.672069232485542,10.995620486216742
6.5320234817336225,-1.0862659463737054,9.328689991999369,7.735575135815219,12.694503555591051,10.607607841310921
6.521160822269885,-0.9593209108177949,9.40604574335752,7.841651214228329,9.947322388980496,9.204133697940462
6.5115676131617075,-0.85984768692799,9.484462255499803,7.933692551207733,6.4040230830429055,6.773537666291724
6.502969136292427,-0.7958074560975609,9.56379918101188,8.001427927870651,2.1803483467600855,3.4801729754753983
6.495011061731452,-0.77400397262996,9.643813460290588,8.036229657625405,-2.4525980022861136,-0.31879003891530105
6.487271022005152,-0.7985299526528211,9.724175756866842,8.033041757236253,-7.111371797362418,-4.12795172714989
6.4792857224786236,-0.8696436706264453,9.804506174439204,7.991762239964754,-11.394024192724475,-7.431822983755268
6.470589285772359,-0.98358391255369,9.884423796838853,7.917444010127202,-14.985829322294954,-9.826192011821012
6.460753446646822,-1.1334422057766396,9.963598236940125,7.819182090008992,-17.72814276837849,-11.101197949288917
6.449419024589056,-1.3107236334604244,10.041790057840215,7.708170110516103,-19.625999791446397,-11.246763757069601
6.436311788254452,-1.5069836313748883,10.118871758945376,7.595702472945407,-20.80639119238041,-10.39702618057285
6.421241951940703,-1.7150475432986925,10.194828783674831,7.491732211139678,-21.45849203690004,-8.753684256877545
6.404091476507716,-1.929632463667693,10.269746105786227,7.404195368570902,-21.782628343697496,-6.521360326612947
6.384795151871039,-2.1474587471046678,10.343788059471937,7.338981765304773,-21.959424444690264,-3.8683134206530707
6.363320564399992,-2.3670529915515703,10.417177877124985,7.300298631098242,-22.138035050237953,-0.9102542429477286
6.339650034484476,-2.58843334205395,10.490180863435967,7.291196088668764,-22.43714577551664,2.2912143676637826
6.313765701063937,-2.812804799809116,10.563092824322654,7.314108232345402,-22.952499381509412,5.723720172998908
6.285637653065845,-3.0423297936242104,10.636233906646108,7.371345434075391,-23.76680200009974,9.41835653314125
6.2552143551296036,-3.279997813625208,10.709947360986861,7.4655289994068035,-24.959964320549602,13.446042052746062
6.222414376993352,-3.529597456830704,10.78460265098093,7.599989419934264,-26.619030088681352,17.917326532218095
6.187118402425044,-3.7957877577175174,10.860602545180273,7.779162685256445,-28.847762569005376,22.985938090888688
6.149160524847869,-4.084265383407571,10.938394172032837,8.00902206616533,-31.775654375904132,28.85536638905133
6.108317871013794,-4.402021927166612,11.01848439269449,8.297575730055843,-35.5645780255084,35.785576805664405
6.064297651742128,-4.757667707421696,11.101460149995047,8.655431498112488,-40.406575785818426,44.090706988881365
6.016720974667911,-5.16173346527988,11.188014464976172,9.096338568001302,-46.49318473440272,54.10091839085908
5.965103640015112,-5.626665312623907,11.278977850656185,9.637347751909893,-53.901424122240925,66.01316420949237
5.908836986888873,-6.165679553846316,11.375351328175284,10.297479394004817,-62.25174434898011,79.43092763139298
5.84718019135041,-6.788196997336117,11.478326122115332,11.091788670318747,-69.79982928330448,92.12182625557178
5.779298221377049,-7.486195290169162,11.58924400881852,12.013006932874465,-71.43663796674956,97.25154884428814
5.704436268475357,-8.200561669836658,11.709374078147265,12.985522421317347,-56.23628541252249,79.95236718489092
5.62243065177699,-8.762924523961882,11.839229302360438,13.785046093166256,-12.106835049132874,23.68859700474449
5.534801406537372,-8.883992874453211,11.977079763292101,14.0219320632137,50.1933000772065,-56.61643531620574
5.44596147779284,-8.382059873681147,12.11729908392424,13.455767710051644,90.7595589766224,-106.34499956265225
5.362140879056028,-7.474464283914923,12.251856761024756,12.392317714425122,95.71755799277355,-107.4584795329666
5.287396236216879,-6.517288703987187,12.375779938169007,11.317732919095455,84.70356387307422,-87.46353514159232
5.222223349177007,-5.670253065256445,12.488957267359961,10.443097567679532,72.24139773823816,-66.03438268881827
5.165520818524443,-4.947839087874064,12.593388243036756,9.78275374079135,62.37306861136082,-48.33773131284076
5.116042427645702,-4.324108401760455,12.69121578044467,9.299376427662942,55.31828796361198,-34.420337477954135
5.072801343628098,-3.770925522124335,12.7842095447213,8.955173052883401,50.52157210367876,-23.372232055036424
5.035092088406854,-3.2657098010875476,12.873761275250134,8.721450732333036,47.431434396233634,-14.35508504565904
5.002434990395979,-2.791395457125211,12.960975782573463,8.577899881876446,45.62742556789349,-6.754805943845865
4.9745210358247265,-2.335121201446276,13.046754781392227,8.510351822437988,44.80282020572571,-0.15134680080729387
4.951169823810264,-1.887092999389019,13.131858299616606,8.508838354429916,44.72674764292897,5.73010459670107
4.932298893816373,-1.4398255229597294,13.216946683160906,8.566139400396926,45.210843649184525,11.055333613641258
4.917900638586776,-0.9877170864678841,13.302608077164875,8.676692736533338,46.082943480697146,15.90318787867331
4.908023467722097,-0.5268876516609127,13.389375004530208,8.835724615320071,47.16642215238889,20.277486917180436
4.902754591205487,-0.055223430137023743,13.47773225068341,9.038499484491876,48.26428463062891,24.11324480417162
4.902202356904117,0.4274194161692653,13.56811724552833,9.279631932533592,49.14863922115932,27.281818399967335
4.9064765510658095,0.9189058083808586,13.660913564853665,9.552450116533265,49.55789653895966,29.600035235145047
4.9156656091496185,1.4144847737704551,13.756438066018998,9.848450468884716,49.20538555254414,30.84870146643308
4.929810456887323,1.9065386292958966,13.854922570707844,10.156937483549047,47.80319222199308,30.805069653419572
4.948875843180282,2.3845705515158273,13.956491945543334,10.464988180083242,45.10267208370972,29.290446823464006
4.97272154869544,2.8355972723529246,14.061141827344166,10.757892648317883,40.947356199341,26.22728715215729
5.00107752141897,3.2450708343463344,14.168720753827344,11.020165519839455,35.32571376636244,21.691161793191775
5.0335282297624335,3.598327972009959,14.27892240902574,11.237077137771374,28.40440039536587,15.936699112578143
5.069511509482533,3.8823719759636175,14.391293180403453,11.396444128897155,20.523353872575033,9.37963476109287
5.1083352292421695,4.0876055146893675,14.505257621692424,11.490240476508085,12.14614380443281,2.5325090787607514
5.149211284389064,4.2090669527336955,14.620160026457505,11.515565567295692,3.778165525658814,-4.087144836948893
5.1913019539164,4.246848607990284,14.735315682130462,11.474694118926204,-4.120045701284727,-10.043900559190831
5.233770439996303,4.205648150977437,14.850062623319724,11.374255113334295,-11.19694803679969,-15.03891926477572
5.275826921506077,4.09367867060944,14.963805174453068,11.223865920686537,-17.23767895674288,-18.92209425071741
5.3167637082121715,3.921301881042011,15.076043833659933,11.034644978179363,-22.158200809451255,-21.670740051672922
5.3559767270225915,3.6997198729474983,15.186390283441726,10.817937577662635,-25.978881411744982,-23.35224309290103
5.392973925752067,3.4399310588300485,15.294569659218352,10.584415146733624,-28.79139546073618,-24.085987658946767
5.427373236340367,3.1520171042226868,15.400413810685688,10.343555270144156,-30.728329614706553,-24.01292992605844
5.458893407382594,2.8447338080756213,15.503849363387129,10.103425970883572,-31.939612476342475,-23.2749089720947
5.48734074546335,2.5253376833121965,15.604883623095965,9.870676881162625,-32.57630339261413,-22.002315741283848
5.5125941222964725,2.1995746493860553,15.703590391907591,9.650653723749787,-32.78061306045323,-20.307701978010986
