th1 (rad),w1 (rad/s),th2 (rad),w2 (rad/s),a1 (rad/s^2),a2 (rad/s^2)
1.5912812640722758,-1.2137072972455931,2.295838630937878,2.940698846145515,-5.409834608790307,-4.167387997644413
1.5791441910998198,-1.267805643333496,2.3252456193993334,2.899024966169071,-5.373750331254341,-4.285620732009965
1.566466134666485,-1.3215431466460394,2.354235869061024,2.856168758848971,-5.355951012857893,-4.402839262743957
1.5532507032000247,-1.3751026567746183,2.3827975566495136,2.8121403662215316,-5.355331247514606,-4.52167412644807
1.5394996766322784,-1.4286559692497645,2.410918960311729,2.766923624957051,-5.37091962023082,-4.644665015263045
1.5252131169397807,-1.4823651654520726,2.4385881965612994,2.7204769748044204,-5.401896761584324,-4.774248897019991
1.5103894652852599,-1.536384133067916,2.4657929663093436,2.6727344858342206,-5.447603071246845,-4.912760606836399
1.4950256239545807,-1.5908601637803845,2.4925203111676857,2.6236068797658567,-5.507538731924956,-5.0624423862105665
1.4791170223167769,-1.645935551099634,2.5187563799653443,2.572982455903751,-5.5813582380798055,-5.225459317270791
1.4626576668057805,-1.7017491334804322,2.544486204524382,2.520727862731043,-5.668861197716085,-5.4039181408320385
1.4456401754709762,-1.758437745457593,2.5696934831516924,2.4666886813227227,-5.769980701423454,-5.599887463303861
1.4280557980164004,-1.8161375524718275,2.5943603699649196,2.410689806689684,-5.88477012974268,-5.815417797166713
1.409894422491682,-1.8749852537692544,2.6184672680318166,2.352535628718017,-6.013388904213541,-6.052560219984081
1.3911445699539895,-1.9351191428113899,2.6419926243189966,2.292010026518176,-6.1560873812061825,-6.313382673569285
1.3717933785258756,-1.9966800166234517,2.664912724584178,2.228876199782483,-6.313190834986942,-6.599983064143016
1.351826578359641,-2.0598119249733213,2.687201486582003,2.162876369141053,-6.485082268169494,-6.914498377125816
1.3312284591099077,-2.1246627476550164,2.7088302502734134,2.0937313853697948,-6.6721836140643545,-7.259108999290997
1.3099818316333576,-2.19138458379566,2.7297675641271115,2.0211402953768847,-6.874934748203722,-7.6360373592218815
1.288067985795401,-2.2601339312776974,2.7499789670808803,1.944779921784666,-7.093769599815943,-8.047539867187876
1.2654666464826239,-2.3310716272758567,2.769426766298727,1.8643045231127873,-7.329088545981184,-8.495890971090503
1.2421559302098653,-2.4043625127356685,2.7880698115298546,1.7793456134018824,-7.581226183401663,-8.983357961325874
1.2181123050825087,-2.480174774569685,2.8058632676638733,1.6895120337886236,-7.850413511678667,-9.512164973184202
1.193310557336812,-2.558678909686472,2.8227583880017595,1.5943903840567815,-8.136733539669274,-10.084444475397145
1.1677237682399473,-2.6400462450831648,2.8387022918423273,1.49354593930281,-8.440069361058177,-10.70217443028759
1.1413233057891157,-2.7244469386937467,2.8536377512353552,1.3865241949999343,-8.76004386169953,-11.367099307555018
1.1140788364021783,-2.812047377310742,2.8675029931853544,1.2728532019243841,-9.09595045157644,-12.08063328497637
1.085958362629071,-2.9030068818265065,2.8802315252045982,1.1520468690746204,-9.446674596856973,-12.843744342948451
1.056928293810806,-2.997473627795076,2.8917519938953444,1.0236094256451358,-9.810606505388513,-13.656818635111142
1.0269535575328552,-3.095579692848961,2.901988088151796,0.8870412392940243,-10.18554613516404,-14.519505580524179
0.9959977606043656,-3.1974351542006016,2.910858500544736,0.7418461834887826,-10.568602785787565,-15.430545657831363
0.9640234090623596,-3.303121182058477,2.918276962379624,0.587540726910469,-10.956092915353988,-16.38758495389667
0.9309921972417748,-3.412682111212017,2.924152369648729,0.42366487737150227,-11.34344148300034,-17.386983151533624
0.8968653761296547,-3.5261165260420206,2.9283890184224437,0.24979504585616602,-11.725093980606694,-18.4236247817211
0.8616042108692344,-3.6433674658480877,2.9308869688810053,0.06555879803895504,-12.0944482404882,-19.490747050959445
0.8251705362107535,-3.7643119482529697,2.9315425568613946,-0.12934867247063941,-12.44381684995881,-20.579801068520656
0.7875274167282238,-3.8887501167525578,2.9302490701366883,-0.33514668315584595,-12.764432225366594,-21.680366345236873
0.7486399155606982,-4.016394439006223,2.9268976033051297,-0.5519503466082147,-13.046506661611676,-22.78014033543131
0.708475971170636,-4.1468595056223405,2.9213780998390475,-0.7797517499625278,-13.279358490982062,-23.86502472504313
0.6670073761144126,-4.279653090532161,2.913580582339422,-1.0184019972129592,-13.451612400784624,-24.919327273966083
0.624210845209091,-4.414169214540007,2.9033965623672926,-1.26759526995262,-13.551476670351251,-25.926091583369452
0.5800691530636909,-4.54968398124352,2.8907206096677664,-1.5268561857863145,-13.567092598452524,-26.867556846910833
0.5345723132512556,-4.685354907228046,2.8754520478099033,-1.795531754255423,-13.486942159929285,-27.725735772020013
0.4877187641789752,-4.820224328827338,2.857496730267349,-2.072789111975623,-13.30028995965597,-28.48308259375384
0.4395165208907018,-4.953227228423898,2.836768839147593,-2.3576199379131615,-12.997626369711284,-29.123206535768873
0.38998424860646286,-5.083203492121011,2.8131926397684612,-2.64885200327085,-12.571072205618815,-29.63157202525983
0.3391522136852527,-5.208914214177199,2.7867041197357527,-2.9451677235234484,-12.01470326660566,-29.99611854566129
0.28706307154348076,-5.329061246843255,2.7572524425005183,-3.2451289089800612,-11.324756899668797,-30.207732911899956
0.2337724590750482,-5.442308815839944,2.7248011534107177,-3.547206238099061,-10.49969288438469,-30.26051652014725
0.17934937091664876,-5.547305744683791,2.689329091029727,-3.8498114033005333,-9.540096601011832,-30.151809557336687
0.12387631346981086,-5.6427067106939095,2.6508309769967218,-4.1513294988739,-8.448431673447146,-29.881961124776563
0.06744924636287176,-5.727191027428381,2.609317682007983,-4.450149110121665,-7.228669272250683,-29.45386500481769
0.010177336088587959,-5.799477720150888,2.5648161909067664,-4.7446877601698425,-5.885838997958214,-28.87231084088146
-0.04781744111292092,-5.85833611013047,2.517369313305068,-5.033410868578657,-4.4255591614384215,-28.143225475150928
-0.10640080221422561,-5.9025917017448535,2.4670352046192816,-5.314843123330166,-2.853610700919818,-27.272895868239015
-0.16542671923167415,-5.931127808754051,2.41388677338598,-5.5875720820125565,-1.1756184032304349,-26.26727178979562
-0.22473799731921468,-5.9428839927863555,2.358011052565854,-5.850244799910513,0.6031040752306009,-25.1314432595199
-0.28416683724707825,-5.93685295203405,2.299508604566749,-6.101559232505712,2.4775018100203967,-23.869375526491567
-0.34353536676741875,-5.912077933933846,2.2384930122416917,-6.340252987770628,4.442493115930037,-22.483964505236518
-0.4026561461067572,-5.867653002774546,2.1750904823639856,-6.565092632822994,6.492447632820174,-20.97744900806038
-0.4613326761345027,-5.802728526446344,2.1094395560357557,-6.774867122903598,8.62045153480955,-19.35218319144272
-0.5193599613989661,-5.716524011098249,2.04169088480672,-6.968388954818026,10.817414630099686,-17.611733428481486
-0.5765252015099486,-5.608349864797252,1.9720069952585397,-7.14450628910284,13.071108636264706,-15.762218952366439
-0.632608700157921,-5.477638778434605,1.9005619323675114,-7.302128478626504,15.365260739016696,-13.813767539204425
-0.687385087942267,-5.323986171044438,1.8275406475812463,-7.440266154018548,17.678855950079896,-11.78191173557969
-0.7406249496527114,-5.147197611543639,1.753137986041061,-7.558085271374345,19.98581726754301,-9.688716870998531
-0.7920969257681478,-4.947339438868209,1.6775571333273176,-7.654972440084331,22.255224169533673,-7.563421376852267
-0.8415703201568299,-4.724787197172872,1.6010074089264743,-7.7306066538528535,24.452188801378924,-5.442394964259244
-0.8888181921285586,-4.4802653091590825,1.5237013423879457,-7.7850306034954455,26.539431997979353,-3.368288837950181
-0.9336208452201494,-4.214870989179289,1.4458510363529913,-7.818713491874948,28.479494128444856,-1.3883626863536958
-0.9757695551119423,-3.9300760478948407,1.3676639014342418,-7.832597118738485,30.237396253313165,0.44788902780438633
-1.0150703155908907,-3.627702085361709,1.2893379302468568,-7.828118228460441,31.783462268301545,2.0915511824396495
-1.0513473364445078,-3.3098674626786937,1.2110567479622525,-7.807202716636044,33.09595216829955,3.4971781622495692
-1.0844460110712948,-2.9789079409956982,1.132984720795892,-7.772230935013549,34.16316246617795,4.625355022530374
-1.1142350904812517,-2.6372763163339186,1.0552624114457565,-7.725977384788245,34.98472765796912,5.444561758392972
-1.140607853644591,-2.2874290397542274,0.9780026375978741,-7.671531767204315,35.57199139080576,5.932080517308421
-1.1634821440421332,-1.9317091258461698,0.9012873199258309,-7.612210962031231,35.94747597735036,6.073836224839129
-1.182799235300595,-1.5722343660726663,0.8251652103055186,-7.55147259978284,36.14362631745499,5.863215864658272
-1.1985215789613215,-1.2107981028981163,0.7496504843076902,-7.4928404411362575,36.20110777012564,5.299033782013756
-1.2106295599903028,-0.8487870251968599,0.6747220798963276,-7.43985010331612,36.16698120901521,4.382876248624814
-1.2191174302422714,-0.48711721310670775,0.6003235788631665,-7.396021340829872,36.09306424319446,3.1160628476419356
-1.2239886023733384,-0.12618657067476313,0.5263633654548677,-7.364860712353453,36.03473030318493,1.4964165908609508
-1.225250468080086,0.23416073235708618,0.4527147583313332,-7.349896546444843,36.05031609644328,-0.4850377267430825
-1.222908860756515,0.594663893321519,0.3792157928668847,-7.354746923712274,36.2012160413338,-2.847396087121346
-1.2169622218232998,0.9566760537348571,0.305668323629762,-7.383220884583488,36.55263649828736,-5.623193018699105
-1.2073954612859512,1.3222024187177308,0.2318361147839271,-7.439452814770479,37.17482916267446,-8.861606555426912
-1.194173437098774,1.6939507103444755,0.15744158663622232,-7.5280688803247475,38.144329907746055,-12.631124349315108
-1.1772339299953292,2.0753940094219363,0.08216089783297484,-7.654380123817899,39.54408372318716,-17.020405913428142
-1.1564799899011098,2.470834846653808,0.0056170965947958534,-7.82458418295218,41.45986077303516,-22.13406692337003
-1.1317716414345718,2.8854334543841595,-0.07262874523472596,-8.04592485218588,43.96700924033162,-28.075475068069746
-1.10291730689073,3.3251035467874757,-0.15308799375658477,-8.326679602866578,47.094116727410004,-34.898259278221786
-1.0696662714228553,3.796044714061576,-0.23635478978525054,-8.675662195648796,50.734384853010354,-42.486174734937435
-1.0317058242822394,4.303388562591679,-0.3231114117417385,-9.100523942998171,54.44644776185602,-50.27992966946218
-0.9886719386563226,4.847853040210239,-0.41411665117172025,-9.603323239692793,57.05267423993964,-56.72087939518582
-0.9401934082542203,5.418379782609636,-0.5101498835686482,-10.170532033644651,55.99803712879426,-58.353867272277284
-0.8860096104281239,5.978360153897579,-0.6118552039050947,-10.754070706367424,46.946599282476726,-49.240572309728364
-0.8262260088891481,6.447826146722345,-0.719395910968769,-11.246476429464707,25.5959364645417,-23.42545909592318
-0.7617477474219246,6.703785511367762,-0.831860675263416,-11.480731020423939,-6.043323073004143,16.420842159109817
-0.694709892308247,6.643352280637721,-0.9466679854676554,-11.31652259883284,-35.52771921241928,53.36107461719226
-0.6282763695018698,6.288075088513528,-1.0598332114559839,-10.782911852660918,-50.98183587784595,71.3948422470414
-0.5653956186167346,5.778256729735069,-1.167662329982593,-10.068963430190504,-52.95468775019192,71.56673370007583
-0.507613051319384,5.24870985223315,-1.268351964284498,-9.353296093189746,-48.34312973084477,63.36522879005167
-0.4551259527970524,4.765278554924702,-1.3618849252163956,-8.719643805289229,-42.08811959360773,53.40857716444031
-0.4074731672478054,4.3443973589886244,-1.4490813632692878,-8.185558033644826,-36.218640140069866,44.30403086192811
-0.3640291936579192,3.9822109575879256,-1.530936943605736,-7.742517725025545,-31.277261515472162,36.66615132366402
-0.3242070840820399,3.669438342433204,-1.6083621208559915,-7.375856211788904,-27.27006955671013,30.41861151692561
-0.28751270065770784,3.396737646866103,-1.6821206829738806,-7.071670096619648,-24.056800719085523,25.31517826952952
-0.2535453241890468,3.1561696396752477,-1.752837383940077,-6.818518313924353,-21.482528542767763,21.108802918493378
-0.2219836277922943,2.94134435424757,-1.8210225670793205,-6.6074302847394195,-19.414319178047606,17.594611177005284
-0.1925701842498186,2.747201162467094,-1.8870968699267148,-6.431484172969367,-17.746602923538862,14.613070472487683
-0.16509817262514764,2.5697351332317053,-1.9514117116564085,-6.28535346824449,-16.39755753364716,12.042784600995075
-0.1394008212928306,2.4057595578952338,-2.0142652463388533,-6.16492562223454,-15.303791347534696,9.792191576075531
-0.11534322571387826,2.252721644419887,-2.0759145025611985,-6.067003706473784,-14.415456098928633,7.7926815821676
-0.09281600926967938,2.1085670834306005,-2.1365845396259364,-5.989076890652108,-13.69222166490045,5.993514183688457
-0.07173033843537338,1.971644866781596,-2.1964753085324573,-5.929141748815224,-13.100036685170773,4.358316994311953
-0.05201388976755742,1.8406444999298883,-2.2557667260206093,-5.885558578872104,-12.608491665276905,2.8628365332630064
-0.03360744476825854,1.7145595832771192,-2.3146223118093303,-5.856930213539473,-12.188626525634135,1.4936271540079493
-0.01646184893548735,1.592673318020778,-2.373191613944725,-5.841993941999394,-11.811096193600147,0.24738419896625535
-0.0005351157552795673,1.4745623560847765,-2.431611553364719,-5.839520100009731,-11.4447022105793,-0.8693877564889043
0.014210507805568198,1.3601153339789835,-2.4900067543648166,-5.848213977574621,-11.055410125563437,-1.8407415748018452
0.027811661145358033,1.2495612327233492,-2.548488894140563,-5.866621393322639,-10.60609367906647,-2.6421552152197743
0.040307273472591526,1.1435002959326845,-2.607155108073789,-5.8930429454748365,-10.057351984862827,-3.2424602835485814
0.05174227643191837,1.0429267760840564,-2.6660855375285375,-5.925467548310323,-9.369780326887867,-3.607406921491961
0.062171544192758936,0.9492289728151777,-2.725340213011641,-5.961541617525242,-8.507953251473495,-3.7052622256519676
0.07166383392091072,0.8641494403004427,-2.7849556291868933,-5.998594239781761,-7.446009471598243,-3.514346047801177
0.08030532832391515,0.7896893455844602,-2.844941571584711,-6.033737700259773,-6.174084253413155,-3.0315629585257833
0.08820222177975975,0.7279485030503287,-2.9052789485873087,-6.064053329845031,-4.7040538982957205,-2.2799730049714015
0.09548170681026304,0.6809079640673714,-2.965919481885759,-6.086853059894745,-3.072504073926643,-1.3127347648051921
0.10229078645093675,0.650182923328105,-3.0267880124847064,-6.099980407542796,-1.3390033295212749,-0.21099289405104482
0.1087926156842178,0.6367928900328923,-3.0877878165601342,-6.102090336483307,0.4210464126347834,0.9251564560944154
0.11516054458454672,0.6410033541592401,-3.1488087199249675,-6.092838771922362,2.1277794637676264,1.9909923135705745
0.12157057812613913,0.6622811487969165,-3.209737107644191,-6.072928848786656,3.7094914246460498,2.8929230157961108
0.12819338961410828,0.699376063043377,-3.2704663961320577,-6.043999618628695,5.112982660128885,3.561141303294219
0.13518715024454206,0.7505058896446658,-3.3309063923183446,-6.008388205595753,6.309065321424678,3.955995524273418
0.1426922091409887,0.8135965428589126,-3.3909902743743023,-5.968828250353019,7.292621845293483,4.067423944574799
0.15082817456957784,0.8865227613118474,-3.4506785568778326,-5.928154010907271,8.078423274310168,3.909108887808639
0.15969340218269631,0.967306994054949,-3.509960096986905,-5.889062922029185,8.694823369631195,3.5101019386780514
0.1693664721232458,1.054255227751261,-3.568850726207197,-5.853961902642404,9.177340437976724,2.906466003560128
0.1799090244007584,1.1460286321310282,-3.627390345233621,-5.824897242606803,9.56343620038358,2.1345354760108703
0.19136931072206867,1.241662994134864,-3.685639317659689,-5.8035518878466945,9.889003721556824,1.226364167906822
0.20378594066341732,1.3405530313504324,-3.743674836538156,-5.7912882461676265,10.186495291427216,0.20719882784233795
0.21719147097692165,1.4424179842647045,-3.801587718999832,-5.789216257889203,10.484332231724686,-0.9055343695185342
0.2316156508195687,1.5472613065819514,-3.859479881578724,-5.798271601584388,10.807176968188296,-2.102306229241234
0.2470882638853882,1.6553330762638343,-3.917462597594568,-5.819294663876801,11.176711030923714,-3.3811113503761994
0.26364159464802656,1.7671001865730713,-3.975655544233336,-5.853105777380563,11.61266889951854,-4.746997862958327
0.2813125965137573,1.8832268755682566,-4.034186602007141,-5.900575756010146,12.133979733616865,-6.211728853526164
0.30014486526943984,2.004566672904425,-4.093192359567243,-5.962693044545407,12.759947751483004,-7.7937128468736665
0.3201905319984841,2.132166150419255,-4.152819290012697,-6.040630173014144,13.51145343753764,-9.518281217885065
0.34151219350267664,2.2672806847946316,-4.213225591742838,-6.135812985192994,14.41218285462086,-11.418351415425956
0.36418500035062296,2.4114025133408403,-4.274583721594769,-6.249996499347254,15.489889150278753,-13.53547753104809
0.38829902548403133,2.5663014048436277,-4.337083686588241,-6.385351274657735,16.77764636308341,-15.921223463413748
0.41396203953246763,2.7340778684744618,-4.400937199334819,-6.544563509291872,18.314935720192462,-18.638641528902138
0.44130281821721223,2.9172272256763865,-4.466382834427738,-6.7309499245808935,20.148126283910834,-21.763282567294
0.4704750904739761,3.118708488515495,-4.533692333673547,-6.948582750253833,22.329291667613926,-25.382347629610894
0.501662175359131,3.3420014051916342,-4.603178161176086,-7.202406226549942,24.910944114975827,-29.588764145311107
0.5350821894110473,3.5911108463413925,-4.675202223441585,-7.498293868003053,27.931323530196572,-34.46295699700643
0.5709932978744613,3.870424081643358,-4.750185162121616,-7.842923437973117,31.378674194753636,-40.02653144200375
0.6096975386908948,4.184210823590894,-4.828614396501347,-8.243188752393154,35.110646351932324,-46.13496579083778
0.6515396469268038,4.535317287110217,-4.911046284025279,-8.704538410301533,38.68423982993083,-52.24721458609482
0.696892819797906,4.922159685409525,-4.998091668128294,-9.227010556162481,41.033186538661305,-56.98298939679441
0.7461144166520012,5.332491550796139,-5.090361773689918,-9.796840450130425,39.988621035488535,-57.45706609750515
0.7994393321599625,5.732377761151024,-5.188330178191222,-10.371411111105477,32.03465533204368,-48.924626598594976
0.8567631097714727,6.05272431447146,-5.292044289302277,-10.860657377091426,13.733209699838936,-26.716782981903457
0.9172903529161873,6.1900564114698495,-5.400650863073191,-11.127825206910462,-13.614218491301244,7.368421550897775
0.9791909170308858,6.053914226556837,-5.511929115142296,-11.054140991401484,-40.488284096574425,40.35116679740556
1.0397300592964542,5.649031385591093,-5.622470525056311,-10.650629323427427,-56.51716858579329,58.29949708393157
1.0962203731523652,5.083859699733161,-5.728976818290586,-10.067634352588112,-60.5978702166011,60.08782354120248
1.1470589701496967,4.47788099756715,-5.829653161816467,-9.466756117176086,-58.00689893205773,53.13121883593349
1.1918377801253681,3.8978120082465724,-5.924320722988228,-8.93544392881675,-53.3337811737003,43.676412139135095
1.2308159002078338,3.3644741965095695,-6.013675162276396,-8.4986798074254,-48.747091649119895,34.57738437853563
1.2644606421729294,2.8770032800183705,-6.09866196035065,-8.152905963640045,-44.94473004131728,26.68797783238108
1.293230674973113,2.4275559796051978,-6.18019101998705,-7.886026185316234,-42.022937080536266,20.072878307969404
1.317506234769165,2.007326608799835,-6.259051281840212,-7.6852974022365395,-39.884181419273595,14.562249891862924
1.3375795008571634,1.608484794607099,-6.3359042558625775,-7.53967490331791,-38.38969437164532,9.95329315409553
