th1 (rad),w1 (rad/s),th2 (rad),w2 (rad/s)
3.974219151282883,2.595899711103329,2.0267294604202304,-0.7607038510835953
4.000178148393916,2.665768746077181,2.0191224219093944,-0.7603298547584112
4.026835835854688,2.738461697545457,2.0115191233618104,-0.7544853007952718
4.054220452830142,2.8142584785433926,2.0039742703538574,-0.7428224594245445
4.082363037615576,2.8934582671210016,1.996546045759612,-0.7249661054721476
4.111297620286787,2.976378421462432,1.9892963847048906,-0.70051409368443
4.141061404501411,3.0633525835403455,1.9822912437680462,-0.6690392172472948
4.171694930336814,3.154727712024256,1.9756008515955732,-0.630092775178993
4.203242207457057,3.2508597326081565,1.9692999238437832,-0.5832103663116374
4.235750804783139,3.352107440635379,1.9634678201806668,-0.5279205245131945
4.269271879189493,3.458824242528188,1.9581886149355348,-0.4637569033351586
4.3038601216147745,3.5713472878620283,1.9535510459021832,-0.39027479489507083
4.339573594493395,3.6899835355974195,1.9496482979532326,-0.30707280738194614
4.376473429849369,3.81499233288404,1.9465775698794132,-0.2138205002718666
4.41462335317821,3.9465641837808696,1.9444393648766944,-0.11029265056017193
4.4540889950160185,4.084795571250609,1.9433364383710927,0.0035894444286786176
4.494936950728524,4.229659990566715,1.9433723328153796,0.12770967417344298
4.537233550634191,4.3809757699675185,1.944649429557114,0.26170254900408874
4.581043308333866,4.5383717929399445,1.9472664550471548,0.4048939786715557
4.626427026263266,4.701252867518257,1.9513153948338704,0.5562401159769883
4.673439554938448,4.8687671479467065,1.9568777959936403,0.7142682063744755
4.722127226417915,5.039778601653989,1.964020478057385,0.8770245702768626
4.772525012434455,5.2128478996363565,1.9727907237601536,1.0420357832046214
4.824653491430818,5.3862251575982025,1.9832110815922,1.2062895677297838
4.8785157430068,5.557857572976894,1.9952739772694978,1.3662416578341574
4.93409431873657,5.725414179287729,2.0089363938478395,1.5178538339386412
4.991348460529447,5.886328784643294,2.024114932187226,1.6566665208546787
5.0502117483758795,6.0378609050806915,2.040681597395773,1.7779070490692839
5.110590357426687,6.177173436939392,2.058460667886466,1.876632294328263
5.172362091796081,6.301425181340096,2.0772269908297485,1.9479023174181571
5.235376343609482,6.4078762077928975,2.09670601400393,1.9869800201785877
5.299455105687411,6.494004220848011,2.1165758142057163,1.9895505672462117
5.364395147895891,6.5576300915615935,2.1364713198781784,1.951952878259069
5.429971448811507,6.597049891893192,2.1559908486607693,1.8714131480776748
5.495941947730439,6.611168568092679,2.174704980141546,1.7462665316605879
5.562053633411366,6.599626666276993,2.192167645458152,1.576147897197158
5.628049900074136,6.562906867913115,2.2079291244301236,1.3621270337431437
5.693678968753267,6.502402974669752,2.2215503947675552,1.1067602243040118
5.758702998499965,6.420432550293524,2.2326179970105953,0.814031737935841
5.8229073240029,6.320177819496011,2.2407583143899537,0.48916820472466194
5.88610910219786,6.205548672925508,2.2456499964372,0.1383265781221127
5.948164588927115,6.080975614298358,2.2470332622184213,-0.23182042566115568
6.008974345070099,5.951155663538471,2.24471505796181,-0.6145551981634993
6.0684859017054835,5.820785658504923,2.2385695059801747,-1.0035824152802149
6.126693758290533,5.694320874888471,2.2285336818273724,-1.3934328363930768
6.183636967039417,5.575791049713163,2.214599353463442,-1.7797590086001724
6.239394877536549,5.46869297023586,2.19680176337744,-2.159502780909587
6.294081807238908,5.3759634318854435,2.175206735568344,-2.5309407190377073
6.347841441557763,5.300023396743609,2.149897328377967,-2.8936338481567754
6.400841675525199,5.242876618208602,2.1209609898963993,-3.2483187544152416
6.453270441707285,5.206244375159232,2.088477802352247,-3.596778179306535
6.505332885458877,5.191720913315032,2.0525100205591817,-3.9417238415574563
6.557250094592027,5.200939573535022,2.013092782143607,-4.286716058994012
6.609259490327378,5.235745379035841,1.9702256215536669,-4.6361367165278695
6.661616944117736,5.298374491230515,1.9238642543883882,-4.995225496244671
6.714600689030042,5.391642976175503,1.8739119994259414,-5.370183304316066
6.768517118791797,5.519144341307711,1.8202101663827808,-5.768337995086332
6.823708562204874,5.685441620711884,1.7625267864319174,-6.1983471225986975
6.880562978411993,5.896201296980508,1.7005433152059304,-6.670360074311853
6.939524991381798,6.158118727833762,1.6338397144628118,-7.195929132513921
7.001106178660136,6.478247646783604,1.5618804231376726,-7.787133257928774
7.065888655127972,6.861797022472595,1.484009090558385,-8.453617659126518
7.134506625352698,7.306310262549137,1.3994729139671198,-9.194652179914016
7.207569727978189,7.788376823571763,1.3075263921679796,-9.980836170766516
7.285453496213907,8.239381038036687,1.2077180304603146,-10.720528256226372
7.367847306594274,8.522175928472237,1.1005127478980508,-11.227482387464345
7.453069065878996,8.467737317394931,0.9882379240234073,-11.271923235218534
7.537746439052945,8.02528344375652,0.8755186916712219,-10.789054731338998
7.61799927349051,7.349333107370411,0.7676281443578319,-9.998016458073828
7.691492604564215,6.639312375673136,0.6676479797770936,-9.177038646364483
7.757885728320947,5.995852435176337,0.5758775933134487,-8.465381837566406
7.81784425267271,5.439032446330567,0.49122377493778463,-7.890767039011965
7.872234577136016,4.958531255909435,0.412316104547665,-7.439541033496798
7.921819889695111,4.537983014430532,0.337920694212697,-7.090320120514582
7.9671997198394156,4.162448252930705,0.2670174930075512,-6.824145309864031
8.008824202368723,3.8198250716327395,0.19877603990891085,-6.62630080987753
8.04702245308505,3.5005861017075803,0.13251303181013555,-6.485862224089778
8.082028314102127,3.197212384549072,0.06765440956923777,-6.3948452307514145
8.114000437947617,2.9036894308129897,0.0037059572617236247,-6.34743789727696
8.143037332255746,2.6151345070051137,-0.059768421711045974,-6.339394559908804
8.169188677325797,2.3275478245921017,-0.12316236731013401,-6.367565292079906
8.192464155571718,2.037667544014911,-0.18683802023093307,-6.429517214001554
8.212840831011867,1.7429119645194922,-0.2511331923709486,-6.523208163270911
8.230269950657062,1.441397882309991,-0.3163652740036577,-6.6466817904920035
8.244683929480162,1.1320275675129023,-0.38283209190857775,-6.797762281582975
8.25600420515529,0.8146363772023675,-0.4508097147244075,-6.973737285611893
8.264150568927315,0.4901873720414634,-0.5205470875805265,-7.171031182777795
8.26905244264773,0.16098732996093468,-0.5922573994083045,-7.384889459805749
8.27066231594734,-0.16911982870460712,-0.666106294006362,-7.609119133482403
8.268971117660293,-0.49464831226199213,-0.742197485341186,-7.835956836838515
8.264024634537673,-0.8085388347288325,-0.8205570537095712,-8.056156409566485
8.255939246190385,-1.1024854712155001,-0.901118617805236,-8.259385871986309
8.24491439147823,-1.3675735024626365,-0.9837124765250992,-8.434981074593791
8.231238656453604,-1.5952044277510065,-1.068062287271037,-8.573011054751355
8.215286612176094,-1.7781763954144734,-1.1537923978185505,-8.665485584441324
8.197504848221948,-1.9116906104230855,-1.2404472536629636,-8.707430467677845
8.178387942117718,-1.994024928353067,-1.327521558339742,-8.697538025141565
8.158447692834187,-2.0266909448260346,-1.4144969385911577,-8.638204627447287
8.138180783385927,-2.0140485831089534,-1.5008789848656305,-8.53495906114425
8.118040297554838,-1.9625173467093509,-1.586228575477073,-8.395471555662663
8.098415124087746,-1.8796177229405997,-1.6701832910336998,-8.228425359691705
8.07961894685834,-1.7730702272301921,-1.7524675446306168,-8.042506442421168
8.061888244586036,-1.6501015174138127,-1.8328926090548285,-7.845664280570411
8.045387229411899,-1.517010203821889,-1.9113492518605326,-7.644682680608433
8.03021712737368,-1.3789705756674495,-1.987796078666617,-7.445018947520959
8.016427421617005,-1.2400147481698973,-2.0622462681418265,-7.250834014449232
8.004027274135305,-1.103126742487254,-2.1347546082863187,-7.0651347778544595
7.992996006710433,-0.970392516178028,-2.205405956064863,-6.88996610825968
7.983292081548653,-0.8431664215779393,-2.27430561714746,-6.7266106836287
7.974860417332874,-0.7222301131524977,-2.341571723983747,-6.5757728262060535
7.967638116201349,-0.6079317741657013,-2.4073294522458073,-6.4377355290038
7.961558798459692,-0.5003013663120888,-2.4717068075358455,-6.312488020260109
7.9565557847965716,-0.39914216866904356,-2.5348316877384467,-6.1998256814330945
7.9525643631098815,-0.3041011512659154,-2.596829944552778,-6.099426149856415
7.949523351597223,-0.2147215824057073,-2.657824206051342,-6.010905997784657
7.947376135773165,-0.13048132339039703,-2.7179332660291884,-5.933862172596794
7.946071322539261,-0.05081992756487874,-2.7772718877551563,-5.867901835548145
7.945563123263613,0.02484282384081178,-2.8359509061106376,-5.812663590544298
7.945811551502021,0.09709481562802623,-2.8940775420160807,-5.76783247272279
7.946782499658301,0.16652423741077033,-2.9517558667433086,-5.733150520999474
7.948447742032409,0.23371565391305726,-3.0090873719533033,-5.7084243014684155
7.9507848985715395,0.2992484810838048,-3.0661716149679874,-5.6935303711863945
7.953777383382378,0.3636970471367632,-3.1231069186798512,-5.6884193553649025
7.957414353853745,0.42763154140375687,-3.1799911122335,-5.693119030146629
7.961690669267783,0.4916191944857921,-3.2369223025349663,-5.707736527351366
7.966606861212641,0.5562249806464691,-3.29399966780848,-5.73245946872264
7.972169111019106,0.622010965998457,-3.3513242624957065,-5.767555445121429
7.978389220679091,0.6895331053941919,-3.408999816946921,-5.813368711503899
7.985284551733033,0.7593337557686385,-3.4671335040619597,-5.870312173341016
7.992877889290719,0.8319273329239557,-3.5258366257953697,-5.938851556306497
8.00119716261996,0.9077752670355137,-3.5852251413584346,-6.019476891539529
8.010274915290315,0.9872445570809525,-3.64541991027383,-6.112653883290021
8.020147360861126,1.0705416489789066,-3.7065464491067304,-6.218744132615335
8.030852777350916,1.1576100763477115,-3.7687338904328835,-6.337878527993338
8.042428878114393,1.2479767933883112,-3.8321126757128168,-6.469762960291666
8.054908646048276,1.340530082554713,-3.8968103053157335,-6.613392056604106
8.068313946873822,1.4332155766595824,-3.9629442258817744,-6.766650503809295
8.082646102640417,1.5226550610642118,-4.030610730919867,-6.925804614258384
8.09787265325106,1.6037397912941942,-4.099868777062451,-7.084948916458466
8.113910051164002,1.6693413708952154,-4.170718266227035,-7.23559509028464
8.130603464872953,1.7104124681017876,-4.243074217129881,-7.366765864843142
8.14770758955397,1.7168401777505358,-4.3167418757783125,-7.466081127064217
8.164875991331476,1.6792816323657271,-4.391402687048955,-7.522145700101054
8.181668807655134,1.5916713724400444,-4.466624144049965,-7.527819108748239
8.197585521379535,1.4533254827256683,-4.541902335137448,-7.482919332851847
8.212118776206792,1.26934118257404,-4.616731528465967,-7.39462607963221
8.224812188032532,1.0489087410941595,-4.690677789262288,-7.275114778959649
8.235301275443474,0.8025408531389319,-4.763428937051885,-7.1378226140795205
8.243326683974864,0.5397004707875233,-4.83480716319268,-6.994342541084694
8.24872368868274,0.2676109067976992,-4.904750588603528,-6.852952610173608
8.251399797750716,-0.008871391924350047,-4.973280114705264,-6.718563380902832
8.251311083831473,-0.28682114207839543,-5.0404657485142925,-6.5933806770248555
8.248442872410688,-0.5646659798753585,-5.106399555284541,-6.477716104058109
8.242796212611935,-0.8416787855902508,-5.171176716325122,-6.370670873026712
8.234379424756034,-1.117602193035692,-5.234883425055389,-6.270624371417178
8.223203402825677,-1.3923960071564085,-5.297589668769561,-6.175551185074797
8.209279442754113,-1.666077621609809,-5.359345180620309,-6.083214259378684
8.192618666538015,-1.9386265353169172,-5.420177323214096,-5.991277717905585
8.173232401184846,-2.2099312459211102,-5.480090100393152,-5.897371459485876
8.151133088725635,-2.4797639681165022,-5.539063814988011,-5.7991290109819404
8.12633544904447,-2.747774065619423,-5.59705510509783,-5.69421218707409
8.098857708388277,-3.013494747478469,-5.653997226968571,-5.58033071419655
8.068722760913491,-3.2763598616879026,-5.709800534110537,-5.455261421829523
8.035959162296612,-3.5357289373650924,-5.764353148328832,-5.316869250588028
8.00060187292296,-3.7909193031278905,-5.817521840834712,-5.163130712405074
7.962692679891681,-4.041244371487848,-5.869153147958763,-4.99215927091625
7.922280236176803,-4.286057186373274,-5.919074740667925,-4.802231222739431
7.879419664313071,-4.524798199306211,-5.96709705289532,-4.591809971411083
7.834171682320009,-4.757046059376715,-6.013015152609431,-4.359566069750722
7.786601221726242,-4.982570046689304,-6.056610813306938,-4.104390071866451
7.736775521259349,-5.201382708554774,-6.0976547140256026,-3.8253951098980448
7.684761694173801,-5.413791316228451,-6.135908665124583,-3.521906228123038
7.630623781011517,-5.620446966910023,-6.171127727405813,-3.1934339074443354
7.5744193113424165,-5.822390491347517,-6.203062066480257,-2.839629945664768
7.516195406428942,-6.021094707697632,-6.231458365936905,-2.460225006938017
7.455984459351965,-6.21850279394838,-6.256060616006285,-2.054948895403623
7.393799431412481,-6.417062246807823,-6.276610104960321,-1.62343734293967
7.3296288089444035,-6.619752306474413,-6.292844478389718,-1.1651337058653772
7.263431285879659,-6.83009841267229,-6.304495815448371,-0.6792022940427294
7.195130301752936,-7.052157423527782,-6.3112878383887985,-0.16448590029500898
7.124608727517659,-7.290436570059212,-6.312932697391749,0.38042902596023465
7.051704361817067,-7.549667226591648,-6.309128407132146,0.9569159319434324
6.976207689551151,-7.834273564087105,-6.299559247812712,1.5655422927612754
6.89786495391028,-8.147229793679063,-6.283903824885099,2.204391456994131
6.816392655973489,-8.48777197498734,-6.261859910315158,2.865715062398974
6.731514936223616,-8.847210927688595,-6.233202759691168,3.5298695521714505
6.64304282694673,-9.202392127812114,-6.197904064169453,4.1559629183922775
6.551018905668609,-9.508699868026705,-6.15634443498553,4.672060489516487
6.455931906988342,-9.700969540227993,-6.109623830090365,4.977082325813681
6.358922211586062,-9.716767238537022,-6.0598530068322285,4.97518938983828
6.261754539200692,-9.540207711257333,-6.010101112933846,4.639996792643371
6.166352462088119,-9.2221948138336,-5.963701145007413,4.045049612908208
6.0741305139497825,-8.844084121941695,-5.923250648878331,3.3121626811184255
5.9856896727303655,-8.46906002376703,-5.890129022067146,2.5402855293343887
5.900999072492695,-8.127823085242685,-5.864726166773802,1.7828311165746076
5.819720841640268,-7.828337671445116,-5.846897855608056,1.0603005265436891
5.741437464925816,-7.56763171964795,-5.836294850342619,0.3768291474223203
5.665761147729337,-7.3387617961995675,-5.832526558868396,-0.26971771477972406
5.592373529767341,-7.133961894625402,-5.835223736016193,-0.8830170856282182
5.521033910821087,-6.9458450239129625,-5.8440539068724755,-1.4664034694825678
5.4515754605819575,-6.767774104595195,-5.858717941567301,-2.0222648629547857
5.383897719536005,-6.593921818873856,-5.878940590196849,-2.5519714944467315
5.317958501347267,-6.419235514899946,-5.904460305141316,-3.0560122647741728
5.253766146198267,-6.239388728890808,-5.935020427789058,-3.5342037679638767
5.191372258909359,-6.050744629370852,-5.970362465468697,-3.98591658618605
5.13086481261565,-5.850334109571702,-6.010221631330557,-4.410295577296261
5.072361471519933,-5.635842868493997,-6.05432458710352,-4.806463084932471
5.016003042834993,-5.405599475648158,-6.102389217952845,-5.173698466483494
4.961947048078511,-5.158556737642165,-6.15412620261768,-5.511589160071609
4.91036148070209,-4.894260252182964,-6.2092420942183955,-5.8201497835796605
4.86141887818026,-4.612800189157299,-6.267443592054192,-6.099907231490967
4.815290876288687,-4.3147447095748666,-6.328442664369102,-6.351951564784773
4.772143429192939,-4.001055754470559,-6.391962180016949,-6.577954559674048
4.732132871648234,-3.6729899837472173,-6.4577417256136895,-6.780159860013013
4.695402971810761,-3.3319892359520678,-6.525543324213819,-6.961350496172019
4.66208307945124,-2.9795658953227235,-6.595156829175539,-7.124800829419458
4.632287420498013,-2.617188974777839,-6.666404837469734,-7.274220527841551
4.606115530750235,-2.2461766770584704,-6.739147042748149,-7.413697780651823
4.58365376397965,-1.8676009885800582,-6.813284020554668,-7.547647399678082
4.564977754093849,-1.482210038946296,-6.888760494551448,-7.680766394189224
4.550155653704387,-1.090375413645484,-6.96556815849334,-7.817994331941432
4.539251899567932,-0.6920757793430383,-7.043748101812755,-7.964466850558358
4.532331141774502,-0.28693745085624456,-7.123392770318338,-8.12543518218406
4.529461767265939,0.12562917379503796,-7.204647122140178,-8.306097250706896
4.530718059003889,0.5461249662183201,-7.287708094647248,-8.511238178535413
4.536179308666072,0.9743607403372108,-7.372820476432602,-8.744498603840352
4.545922916069444,1.408349629492394,-7.460265462471005,-9.006973020718373
4.560006412364368,1.8424074139944593,-7.5503351926781885,-9.294725538145425
4.578430486504312,2.2642443611281884,-7.643282448059643,-9.594886281529238
4.601072930115595,2.6514458364448723,-7.739231310874935,-9.88080632706025
4.627587388480043,2.969562875649875,-7.838039374145537,-10.109231402413029
4.657283017236542,3.176877434519678,-7.939131688169668,-10.226376131674016
4.689051791581738,3.240476249478544,-8.041395449486409,-10.189269547752465
4.721456554076523,3.157150549462875,-8.143288144963932,-9.993627015362106
4.753028059571152,2.958898783607186,-8.243224415117554,-9.680906144860211
4.782617047407224,2.694485135455537,-8.340033476566155,-9.313392921086074
4.809561898761779,2.4062226607360073,-8.433167405777017,-8.943606746122711
4.833624125369139,2.1203805245149585,-8.522603473238243,-8.602431300604453
4.854827930614289,1.8494192728418317,-8.608627786244288,-8.302857593473476
4.8733221233427075,1.5973903255500435,-8.691656362179023,-8.047494274437025
4.889296026598208,1.364132555978479,-8.772131304923393,-7.834158342593734
4.902937352157993,1.147692368752958,-8.85047288834933,-7.658972877041544
4.914414275845522,0.9455300013453668,-8.927062617119745,-7.517829406229005
4.923869575858976,0.7550624679281379,-9.002240911182035,-7.406987796615222
4.931420200538258,0.5738796314048215,-9.076310789148188,-7.323269153284825
4.937158996852307,0.399809621129692,-9.149543480681036,-7.264072431261859
4.9411570930636035,0.2309197267017994,-9.222184204993654,-7.2273229532971826
4.943466290330622,0.06549331064722741,-9.294457434526626,-7.2114006825384465
4.944121223437094,-0.09799869263167255,-9.36657144135201,-7.215067785057474
4.943141236510777,-0.2609233918100412,-9.438722119202584,-7.237402129231501
4.940532002592676,-0.4245049856486648,-9.5110961404949,-7.27773765341716
4.9362869527361894,-0.5898354769078694,-9.58387351702907,-7.335610061284695
4.930388597967111,-0.7578759139161624,-9.657229617641917,-7.410705241862385
4.922809838827949,-0.9294470300292285,-9.731336670060541,-7.502807316265515
4.913515368527657,-1.1052078759698258,-9.806364743223197,-7.611742912668761
4.902463289767958,-1.285620663354919,-9.882482172349885,-7.737318025219253
4.8896070831344085,-1.4708996965594539,-9.959855352602078,-7.8792436133526085
4.874898086168814,-1.6609421170373706,-10.038647788735604,-8.037046037945059
4.85828866499844,-1.8552384338228565,-10.119018249115054,-8.209958708067065
4.839736280660212,-2.0527617817603896,-10.201117836195724,-8.39679225503375
4.819208662842608,-2.251836979478693,-10.285085758746062,-8.595782644851296
4.7966902930478215,-2.4499943212235578,-10.371043585194576,-8.804420533114746
4.7721903498355855,-2.643819244348682,-10.459087790525723,-9.019271596147947
4.745752157392099,-2.82881800065677,-10.549280506487202,-9.235807143401011
4.717463977385531,-2.99933101827486,-10.641638577921212,-9.448277016641875
