th1 (rad),w1 (rad/s),th2 (rad),w2 (rad/s)
4.770538976606428,2.9668315094760986,5.976799082822695,1.8405468977604038
4.800207291701189,3.098232062096006,5.995204551800299,1.7410218081286808
4.831189612322149,3.2301128051568293,6.012614769881586,1.6311614160142904
4.863490740373717,3.362626849881685,6.028926384041729,1.5105252540515068
4.8971170088725335,3.495992061570356,6.044031636582244,1.3786732016938388
4.932076929488237,3.6305007885547105,6.057818368599182,1.2351607387670505
4.968381937373784,3.766529920714371,6.070169975986853,1.0795328542263964
5.006047236580928,3.904551054348074,6.080965304529117,0.9113168309747324
5.045092747124409,4.045140362692712,6.090078472838865,0.7300144620344174
5.085544150751336,4.188987454047068,6.097378617459209,0.5350948078382377
5.127434025291807,4.336901942240676,6.102729565537591,0.3259895197096971
5.170803044714214,4.489815491171429,6.105989460734688,0.10209426306250152
5.215701199625928,4.648775454805351,6.1070104033653125,-0.13721774567235176
5.262188954173982,4.814923481984116,6.105638225908589,-0.39256001804001417
5.310338188993823,4.989447924654203,6.101712625728188,-0.6644582640604992
5.360232668240365,5.173491634454381,6.095068043087584,-0.9532100859887858
5.411967584584909,5.367985648162142,6.085535942227696,-1.258636313256902
5.4656474410665306,5.573363734166817,6.072949579095127,-1.5796598128245327
5.521381078408199,5.789094845751025,6.057152980966881,-1.9136232575974967
5.579272026865709,6.012960569293062,6.038016748390906,-2.2552454060261162
5.63940163255864,6.240033287743985,6.015464294330645,-2.5951600386696634
5.701801965436079,6.461445852101259,5.989512693943948,-2.9181796564334124
5.766416423957092,6.663387494226154,5.960330897379614,-3.201922352834327
5.833050298899353,6.827341087632999,5.928311673851271,-3.417270969866273
5.901323709775683,6.933007510445549,5.894138964152608,-3.5327427266354894
5.970653784880139,6.964523954693927,5.858811536886253,-3.5236329174566077
6.040299024427078,6.91761790325426,5.823575207711687,-3.3825328067574945
6.1094752034596205,6.8025272279879365,5.789749879644112,-3.123761915866421
6.1775004757395,6.639682916349846,5.758512260485448,-2.7773090846704545
6.243897304902998,6.451447311928904,5.730739169638744,-2.3769091106113667
6.308411778022288,6.255756956161092,5.70697007853263,-1.9506651568126747
6.370969347583899,6.064055060024863,5.687463426964504,-1.5177718541428586
6.431609898184147,5.8821673403387775,5.672285708423075,-1.0895287190581016
6.490431571587536,5.712083814317026,5.661390421232494,-0.6717571084222824
6.547552409730706,5.553530502535472,5.6546728501482715,-0.26699639613435616
6.603087714756061,5.40504465197406,5.652002886186928,0.12396820517042839
6.657138161275801,5.264622872196171,5.653242568238632,0.5011745458452257
6.709784389997763,5.130083550289663,5.658254313697084,0.8649623647472429
6.7610852255006595,4.999259228718242,5.666903937344556,1.2157035327899652
6.811077817787842,4.870094471589968,5.679060972672456,1.5536778505804527
6.859778762503741,4.740693724343613,5.694597751178261,1.8790303943328919
6.907185699747178,4.609343850281708,5.71338805512159,2.1917734625455236
6.953279138249995,4.474524361026925,5.735305789747045,2.4918121788447567
6.998024381860264,4.334911776731103,5.760223911535492,2.778981853455078
7.041373499627575,4.189380943258289,5.788013730070043,3.0530902002159337
7.083267309060158,4.037004218612028,5.818544632072202,3.3139602406161095
7.123637351246279,3.8770484868150463,5.851684234478363,3.5614712430401703
7.162407836114429,3.7089695531810594,5.887298946908764,3.795595930789793
7.19949753164624,3.532403389063564,5.925254906216662,4.0164327679373715
7.234821565536875,3.347153792830504,5.965419233896036,4.2242325671185625
7.26829310346518,3.1531762352661548,6.007661559567222,4.419419040020459
7.2998248658178415,2.950557908409103,6.051855749967427,4.6026032610071095
7.329330444901933,2.7394942601955057,6.097881782577498,4.774592338918016
7.356725387503888,2.5202625483195495,6.145627705966678,4.936392875967237
7.381928012987083,2.293193171919909,6.1949916347263505,5.089210009295362
7.404859944706282,2.0586397389432616,6.245883734819304,5.234442944944256
7.425446342095714,1.816949017882704,6.298228164268747,5.373677860372512
7.443615832274541,1.5684321470156226,6.351964942872472,5.5086788073388115
7.459300153744698,1.3133388091681093,6.40705173094586,5.641376697509408
7.472433541836379,1.0518366538650856,6.4634654979209545,5.773855446664614
7.48295190837503,0.7839992677814787,6.521204052387601,5.908332639274495
7.490791901052845,0.5098077824931226,6.580287378780346,6.0471292413888955
7.495889978877777,0.2291742600054078,6.640758671194235,6.192618278281084
7.498181721477831,-0.0579999736782828,6.702684853977046,6.347135015562706
7.497601721741048,-0.3517099551080609,6.766156204132673,6.512819726728188
7.494084622189967,-0.6516439589835945,6.831284401399955,6.691347350268541
7.487568182600131,-0.9568440458117659,6.898197874902641,6.883476598411212
7.477999742142013,-1.265169550941297,6.967032640886753,7.08833080345627
7.4653480466326005,-1.5725083490970986,7.037915948921316,7.302326926697133
7.449622963141629,-1.8717473697175313,7.110939218188287,7.517755874135343
7.430905489444454,-2.1517197339651677,7.186116776929641,7.7212952822010505
7.409388292104802,-2.3967674424099723,7.263329729751652,7.893314097532344
7.385420617680703,-2.5880803407757402,7.342262870726975,8.009553872387873
7.359539814272946,-2.707930701045997,7.422358409450854,8.046735903978426
7.3324605072624855,-2.746226371104259,7.502825768490638,7.991340437523818
7.304998243551443,-2.7057723051137783,7.582739172865876,7.846665931502434
7.277940520500305,-2.6018642266401555,7.661205832180901,7.632249335943801
7.251921878233904,-2.4561021325204746,7.737528325540339,7.375562486472332
7.227360856908699,-2.289126765222599,7.811283950405063,7.1023984666463695
7.2044695892564725,-2.1164755630981893,7.882307935071526,6.83155506093086
7.183304833625491,-1.947973270986257,7.950623485680834,6.574251633120635
7.163825100915629,-1.7889470914431689,8.01636600201204,6.335903497177747
7.145935630001198,-1.6417690432012046,8.079725036983817,6.118241905132544
7.129517939569186,-1.5070815475386625,8.140907456035142,5.920949497621342
7.114447124093799,-1.3846056854603548,8.200116951011356,5.742709156709991
7.100601067239196,-1.2736233660476726,8.257544042578456,5.581808881313392
7.087864833578719,-1.173246708900269,8.313362131391589,5.436464182455118
7.076132366489716,-1.0825602865723216,8.36772677321614,5.3049761518774
7.065306763623993,-1.0006911727497798,8.420776534734914,5.185799227537222
7.055299851896495,-0.9268394514550411,8.472634527010287,5.077561646727815
7.046031457381945,-0.8602878161700306,8.523410143477566,4.9790624813760065
7.0374285792202445,-0.800400620920541,8.573200768291326,4.889258123510597
7.029424573011039,-0.7466180332817146,8.622093349526432,4.8072449389544305
7.021958392678222,-0.6984483029566315,8.670165798915976,4.732241452181688
7.014973909648655,-0.6554597027561051,8.717488213437793,4.6635716281997714
7.008419312621094,-0.6172729029646453,8.76412392971979,4.600649875016003
7.002246583591448,-0.5835541118627727,8.81013042846995,4.542967911594327
6.99641104247282,-0.5540090903182076,8.855560107585893,4.490083416151571
6.990870951569638,-0.5283780352621813,8.900460941747408,4.441610270777005
6.985587171217016,-0.5064312745404,8.944877044455177,4.397210186972469
6.980522858471613,-0.48796569570750814,8.988849146324903,4.3565854985290295
6.975643201514537,-0.4728018280590261,9.032415001310193,4.319472925023529
6.970915183233947,-0.4607815018158969,9.075609730560428,4.285638131802436
6.966307368215788,-0.451766016023093,9.118466111878453,4.254870936126446
6.961789708055557,-0.44563475463921476,9.161014821239718,4.226981032348162
6.957333360509165,-0.4422841968362772,9.2032846315632,4.201794131250561
6.952910518540802,-0.4416272715972411,9.245302572875705,4.179148430516619
6.94849424582483,-0.44359300741043944,9.287094057180871,4.158891355797179
6.944058315750725,-0.4481264243802683,9.328682970738843,4.140876536410024
6.939577051506922,-0.45518860755990037,9.370091736102943,4.124961007957422
6.935025165431323,-0.4647568859659407,9.411341346182517,4.111002667735424
6.930377596571664,-0.47682502098179536,9.452451372859871,4.098858049100027
6.925609346361846,-0.4914032806864117,9.49343995335087,4.088380528573024
6.920695313554982,-0.5085182441562126,9.534323758636601,4.079419133533585
6.91561013111342,-0.5282121449424291,9.575117949971936,4.071818175426444
6.910328009663996,-0.5505415314609619,9.615836131726201,4.065417986283937
6.904822594349386,-0.5755750033312088,9.65649031158904,4.060057072702088
6.899066844316073,-0.6033897902114759,9.697090882316061,4.055576003194483
6.893032946413959,-0.6340669901978804,9.737646642348006,4.05182328914688
6.88669227651198,-0.6676853958047879,9.778164875239474,4.048663382164155
6.880015422553932,-0.704314019484762,9.818651509061116,4.045986673256294
6.872972282359084,-0.7440036869702593,9.85911137579368,4.043721041247635
6.865532245489382,-0.7867783721594666,9.899548586206155,4.041844088741759
6.857664461767787,-0.8326272490825241,9.939967027093573,4.0403947939171
6.8493381892769625,-0.8814986541789839,9.980370975032743,4.03948300389244
6.840523202735173,-0.933297193156019,10.020765805071667,4.039295126717095
6.831190230803613,-0.9878850169890685,10.061158756338838,4.0400946472141905
6.821311380633722,-1.0450878128060765,10.10155970281098,4.042216725739117
6.810860502505662,-1.1047053719875541,10.14198187006837,4.046057055297684
6.799813448785787,-1.1665258554887692,10.182442440621347,4.052056157616222
6.788148190230899,-1.230342262923365,10.22296300219751,4.060681140243204
6.775844767601665,-1.29596929239509,10.263569813599942,4.072407391105926
6.7628850746777145,-1.3632588330618962,10.304293887511001,4.0877026436371855
6.749252486347095,-1.4321127300580776,10.345170913947372,4.107015346048042
6.734931359046515,-1.5024920757791278,10.386241067407854,4.1307684816673795
6.7199064382887235,-1.5744229459677836,10.427548752224528,4.159359138822273
6.704162208829046,-1.6479990659542503,10.46914234361275,4.193163419211357
6.6876822181695035,-1.7233822737043745,10.511073977804864,4.232545824645863
6.67044839543246,-1.8008018232141318,10.553399436051324,4.277872102480118
6.6524403772003184,-1.8805535794244113,10.596178157076125,4.329524617528291
6.633634841406074,-1.9630000568895007,10.639473403251408,4.387919574741959
6.614004840837179,-2.0485721146398346,10.683352598998827,4.453525762266692
6.5935191196907805,-2.1377729924326956,10.727887856621493,4.526884857625088
6.572141389766454,-2.231185294441127,10.773156705197744,4.608633706425296
6.549829536822043,-2.329481514515308,10.819243042261997,4.699529333796826
6.52653472167689,-2.4334387595546416,10.866238335599965,4.800477792333754
6.502200334081343,-2.543958463330539,10.914243113523302,4.912568304633528
6.4767607494480375,-2.6620920843223708,10.963368796569638,5.037114541003502
6.450139828604814,-2.789074027740586,11.013739941979672,5.175705286846425
6.422249088327408,-2.9263632757369926,11.065496994848136,5.330267163880274
6.392985455570038,-3.075695336217893,11.118799666486938,5.503142347583514
6.362228502207859,-3.239145863181656,11.173831089962773,5.6971840365058695
6.329837043576043,-3.4192060535965845,11.230802930327831,5.915870981791601
6.295644983040077,-3.618866326482783,11.289961640145748,6.163437851560661
6.259456319775249,-3.841695809361371,11.351596018661354,6.445006465517
6.221039361681635,-4.091884094640732,11.416046083316523,6.76667479326494
6.180120520735228,-4.37416393429017,11.483712831249173,7.135455807184803
6.136378881392326,-4.693427903877097,11.555067389321021,7.558813508271568
6.089444602353555,-5.053627238187043,11.630655524403737,8.043232709123462
6.038908329971685,-5.455099059799423,11.711087851494971,8.590643691428928
5.98435733937369,-5.888762186913436,11.79699428840926,9.190530637782457
5.925469717504556,-6.325198335392825,11.888899594787086,9.80493143117408
5.862217734150628,-6.6994810435159655,11.986948909098826,10.347430750742582
5.7952229237154675,-6.906110167276387,12.090423216606252,10.675952045983099
5.7261618220427035,-6.839704339546102,12.197182737066083,10.648722393044022
5.657764778647243,-6.485609177542193,12.303669960996523,10.248863008299134
5.592908686871821,-5.94986917546567,12.406158591079514,9.624182648549414
5.5334099951171645,-5.365267060831748,12.502400417565008,8.956453297914583
5.479757324508847,-4.810101059372222,12.591964950544154,8.350768655606899
5.431656313915124,-4.309865940181821,12.675472637100224,7.839720418127801
5.388557654513306,-3.8645025609003802,12.753869841281503,7.4216235181904295
5.349912628904303,-3.4657126089022707,12.828086076463407,7.084279192115188
5.31525550281528,-3.1040219189840474,12.898928868384559,6.814444345929319
5.284215283625439,-2.771004347633444,12.967073311843851,6.60067492428152
5.256505240149105,-2.459721567660799,13.033080061086666,6.433777133789699
5.231908024472497,-2.1646069308344487,13.097417832424563,6.306539814643225
5.210261955164152,-1.8812255270901828,13.160483230570996,6.213323706347778
5.1914496998932504,-1.6060466737639687,13.222616467634474,6.149681811952787
5.17538923315561,-1.3362627970254373,13.284113285754001,6.112049368255968
5.162026605185356,-1.0696558985752134,13.345233779436562,6.09750032091673
5.151330046199604,-0.804503929945414,13.406208782645729,6.103557395316756
5.1432850069001494,-0.5395182279273671,13.467244356598897,6.128043073373636
5.137889824620876,-0.27380407994551076,13.528524787332634,6.16896164771019
5.135151783821421,-0.00683763223739986,13.590214403809735,6.224405659206506
5.135083407499047,0.2615467972543898,13.652458460401801,6.2924827631303835
5.137698875471591,0.5311644376618447,13.715383288033106,6.371261271148113
5.143010519848209,0.8014879776581527,13.779095900744586,6.458734257679885
5.151025399624791,1.0716605966577943,13.843683243321385,6.552803160308418
5.1617420055913685,1.3405186217724152,13.90921127492447,6.651282166458297
5.175147191809093,1.6066275051306091,13.975724096589053,6.7519242701845625
5.1912134668603995,1.8683334469392487,14.043243339290898,6.852468655176605
5.209896801329792,2.12383101145125,14.111768025842665,6.950707080308365
5.2311351114443045,2.3712446126893023,14.181275096645749,7.044564459334638
5.254847557571198,2.6087191016070754,14.251720741239096,7.132186286856933
5.280934748587269,2.834512357098583,14.323042604107664,7.2120235722069275
5.309279872158255,3.0470813311217153,14.395162839829734,7.282905123209396
5.339750685469472,3.24515288898877,14.467991891061828,7.344087817014426
5.372202214359359,3.427772213337011,14.541432769231973,7.3952779844697405
5.40647993649273,3.594324314757499,14.61538554907667,7.436620841482523
5.442423179640304,3.74452775734024,14.689751757491495,7.468659262302841
5.479868457213707,3.8784032960442993,14.764438350114522,7.492267176599755
5.51865249017415,3.9962229927435224,14.83936102188052,7.508565679156561
5.558614720101585,4.098447031927617,14.914446678672086,7.518831123078093
5.599599190420861,4.185655758437013,14.989634989902866,7.524404031318616
5.641455748005231,4.258483610389552,15.064879030216051,7.526605992265668
5.684040584109126,4.317560036397984,15.140145090138708,7.526669385283781
5.7272161844731055,4.363460635905051,15.215411783991545,7.52568239124554
5.7708507908321565,4.396670035055261,15.290668607904001,7.52454971454232
5.814817491182709,4.417556651351434,15.365914105049423,7.5239680060330745
5.858993057696224,4.426358599295982,15.441153785109755,7.524414172131209
5.903256643689184,4.423179519197499,15.516397926831067,7.526144494594913
5.947488438881159,4.407992975853223,15.591659371777016,7.529202614416988
5.991568368639691,4.380654150710324,15.666951397921187,7.533434784624684
6.035374910146794,4.34091772266016,15.742285745767434,7.538511223079589
6.078784087373396,4.288461001969927,15.81767085799823,7.543952782813751
6.121668697393096,4.222911479399958,15.893110385826368,7.5491624247111035
6.163897812187096,4.143877937099762,15.968602010073479,7.553461078853667
6.205336591558093,4.050984126085924,16.044136620862016,7.556127399759286
6.2458464328189525,3.94390376085806,16.11969789485961,7.556440668521638
6.285285470427533,3.8223952551582965,16.195262301544826,7.553725711119186
6.323509422979116,3.686334287693291,16.27079955865602,7.547398253621545
6.360372765856049,3.5357420234166024,16.346273541192236,7.537008711098564
6.395730186090215,3.3708067104111987,16.421643628303222,7.522282109581618
6.429438253194327,3.191896498439231,16.49686644939904,7.503151767116976
6.461357218178719,2.9995617256626037,16.57189796707021,7.479784583300841
6.491352835435345,2.794525589707182,16.646695812903218,7.452596333479057
6.519298091332416,2.5776629964194515,16.721221776238007,7.42225620147907
6.5450747212966105,2.3499683506651974,16.795444338252796,7.389680820792945
6.568574404803263,2.112513971718876,16.869341146460727,7.3560191911964194
6.589699544520451,1.8664015314106968,16.942901338372693,7.322630842333773
6.608363559834558,1.6127093059135125,17.01612764679603,7.291060392936226
6.6244906528936935,1.352438036771348,17.08903825072539,7.263012118878468
6.638015033261407,1.0864578148908977,17.161668371914175,7.2403282779919955
6.648879611410316,0.815457694642729,17.234071654694095,7.224974796124349
6.657034188356743,0.5398988163419407,17.30632140265534,7.219037602652025
6.662433176520162,0.25997078069139545,17.378511778681858,7.2247325475310324
6.665032884327076,-0.024450014381346974,17.450759104157168,7.244431567005726
6.664788384183262,-0.31384230854813555,17.523203419827226,7.280707690515507
6.661649961097781,-0.6090851987916193,17.59601049673238,7.3364016310961855
6.6555591091098645,-0.9115101623455535,17.66937451304334,7.414712990275098
6.646444007486409,-1.2229633903201669,17.743521642946092,7.519319215131876
6.634214373583207,-1.5458808162055457,17.81871483509741,7.654524541583032
6.618755565421152,-1.8833745493004466,17.89526008051324,7.825437271143634
6.599921819928148,-2.239319823329575,17.973514453224677,8.038162259197328
6.577528621694852,-2.6184082640704536,18.05389607581665,8.299965807669134
6.551344539054147,-3.0260785816307942,18.13689573389334,8.619297913384836
6.521083753237839,-3.468110518956298,18.223088713027188,9.0053876331635
6.486402648048276,-3.9493905379885486,18.313142589358822,9.466746970911432
6.446908742668391,-4.470786425426718,18.407810059067938,10.007125544473661
6.402200878414124,-5.022094692858093,18.507881314512673,10.616088261748557
6.351979931485543,-5.568297383938475,18.614042197130157,11.250309513807075
6.296296957646158,-6.030014336154575,18.726545292268227,11.80658431626839
6.235996814284612,-6.277980426614552,18.84461113543091,12.11362410873544
6.173217010018467,-6.190774936156702,18.965747376518262,12.010336427393067
6.1113092606569,-5.772038479407505,19.085850740792193,11.504961775674172
6.0535888758628245,-5.166146280776081,19.200900358548935,10.7936593204201
6.001927413055063,-4.524715249086976,19.308836951753136,10.077257013009023
5.956680260564194,-3.9244042578150817,19.409609521883226,9.452591917031274
5.917436217986043,-3.3848193214804705,19.50413544105354,8.94012691374986
5.883588024771238,-2.9019720931099178,19.59353671019104,8.530245678615366
5.854568303840138,-2.465637273763526,19.67883916697719,8.206441246621905
5.829911931102503,-2.065548801795798,19.76090357944341,7.953176106106245
5.809256443084545,-1.693058679715226,19.840435340504474,7.757707109592217
5.792325856287392,-1.3412990875981057,19.918012411600397,7.610013132085791
5.778912865411411,-1.0049425768203886,19.994112542921254,7.502269145991835
5.768863439643207,-0.6799108382903203,20.06913523438117,7.428306531894723
5.762064331260303,-0.3631282409533532,20.14341829970012,7.383167528767619
5.75843304885077,-0.052335193847396266,20.217249974987794,7.362761671395123
5.757909696912296,0.25404679006377484,20.290877591701747,7.363607282185736
5.760450164812934,0.5570111218495114,20.364513664523603,7.382639148277898
