th1 (rad),w1 (rad/s),th2 (rad),w2 (rad/s)
4.933793359206702,2.0912759025321965,5.393583653651645,1.9424234584007292
4.954706118232024,2.2225529885955657,5.4130078882356525,1.8815009697012988
4.976931648117979,2.354981961852031,5.4318228979326655,1.8157987429138052
5.0004814677365,2.4885393485598537,5.4499808853618035,1.7451695962510738
5.025366861222098,2.6231853854420732,5.4674325813243145,1.6695187462384409
5.051598715076519,2.7588582844544525,5.484127768786699,1.588817914896952
5.079187297921064,2.8954664251840554,5.500015947935669,1.5031225802101775
5.108141962172905,3.032877920902645,5.515047173737771,1.4125930401333355
5.138470741381931,3.1709069611560605,5.529173104139105,1.3175199849245034
5.170179810993491,3.3092963497605496,5.54234830398835,1.2183552025559405
5.203272774491096,3.447695785541461,5.554531856013909,1.1157477981931851
5.2377497323465105,3.5856357532763794,5.5656893339958415,1.0105857750854255
5.273606089879275,3.722497511173864,5.575795191746696,0.9040418457069069
5.310831064991014,3.857480704498427,5.584835610203765,0.7976207398810083
5.349405872035998,3.98957171321829,5.592811817602575,0.6932028994282449
5.389301589168181,4.117517974565897,5.599743846596858,0.5930762846614557
5.43047676891384,4.239816006068408,5.605674609443472,0.4999443877802888
5.472874928974524,4.354723088128907,5.610674053321275,0.4168953621866048
5.516422159855813,4.460303400638517,5.614843006943141,0.3473161402980192
5.561025193862198,4.554517223736108,5.618316168346121,0.29473891634706983
5.606570366099559,4.635355054589145,5.621263557509592,0.2626176911664164
5.652923916645451,4.701006827151399,5.623889734421256,0.2540501847006629
5.699933984916965,4.7500421389834715,5.626430236268263,0.2714819373162177
5.747434406306799,4.781565910309953,5.629145055641425,0.31644684935839007
5.795250065409898,4.795312015977953,5.632309524135009,0.3894016984578046
5.843203185569678,4.79164918786177,5.636203541119587,0.489695212211248
5.8911196774482955,4.7714962698218075,5.6411004932417,0.6156786613695661
5.9388346401465135,4.736168520830813,5.6472572798553955,0.7649280204250642
5.986196325354822,4.6871924905273215,5.654906560059646,0.9345231899162713
6.033068250260095,4.6261285291456735,5.664251791958809,1.1213260435170591
6.079329535551552,4.554429425164224,5.67546505239398,1.3222134191325952
6.124873829803194,4.473348029325982,5.688687186585306,1.5342435919439739
6.169607310096454,4.383892919764047,5.704029622504746,1.7547551353639421
6.213446239294095,4.286822766120513,5.721577173858385,1.981409920333582
6.2563144669553,4.182667178329544,5.741391273061721,2.2121968630638196
6.298141138738595,4.071762722093365,5.763513241692359,2.4454122668821916
6.338858765959529,3.9542954226351053,5.787967364361181,2.679629090545911
6.37840172018588,3.8303440059081546,5.81476365526664,2.913663348957527
6.416705160244962,3.6999206017426816,5.843900288756215,3.1465422509002066
6.4537043662623885,3.56300744062506,5.875365711265217,3.3774759836213737
6.489334440668639,3.4195892789276012,5.909140471101431,3.605833227831637
6.523530333457915,3.2696820515715266,5.945198803379747,3.8311193256099987
6.55622715397363,3.1133587456171705,5.983509996635847,4.0529553010052926
6.587360741429801,2.9507738469943487,6.0240395496459005,4.271055458982891
6.616868479899745,2.782188023733626,6.066750104235729,4.48520092747418
6.644690360137082,2.607995014253344,6.111602113510471,4.695206181914835
6.670770310279615,2.428752979274492,6.158554175329619,4.900875288376025
6.69505784007236,2.245222775138374,6.207562928213379,5.101944393249498
6.717510067823744,2.0584155399752566,6.258582372145875,5.298007080288594
6.738094223223497,1.8696513265578067,6.311562442948761,5.488420022866877
6.756790736489075,1.6806287277142111,6.366446643177429,5.672188593540862
6.773597023766217,1.493501736197208,6.423168529112838,5.847836825998585
6.788532041128189,1.3109535278595035,6.4816468973728245,6.013274672956969
6.801641576406784,1.136246812550477,6.5417796441023945,6.165688861210313
6.813004044532288,0.9732175757284812,6.603436532714498,6.301501056097778
6.822736220289573,0.8261673297837389,6.666451543275476,6.416453521018842
6.83099789358741,0.6996073395234849,6.730616078485664,6.50588616595632
6.837993966982645,0.5978299654495608,6.7956749401452266,6.56524192131899
6.843972266637141,0.5243374861122249,6.861327359358416,6.590765647548272
6.849215641498263,0.48123927013269413,6.927235015833899,6.580255710180285
6.854028034199589,0.4687947621850415,6.993037572935702,6.533638858174136
6.858715981821439,0.4852757136383394,7.058373961517443,6.453143640942956
6.863568738957823,0.527219968344521,7.122905397926872,6.342980186634934
6.868840938641268,0.5899964948344273,7.186335199793222,6.208633373466632
6.874740903589613,0.6684909636690156,7.248421533527888,6.05601775583856
6.881425813226303,0.75771489113057,7.308981711086274,5.89074588091673
6.889002962137609,0.8532207463507749,7.367889169895441,5.717654176092538
6.897535169601117,0.9513037539031822,7.425065711656366,5.540601981341382
6.907048207140148,1.0490360432615553,7.4804717314697795,5.362477566933355
6.917538567572763,1.144198941311217,7.534096507139113,5.185322766843813
6.928980556985875,1.2351699855033158,7.585949734807551,5.010503142490156
6.941332256840909,1.3208018917992104,7.636054766232452,4.838877562826264
6.954540275758901,1.4003130038524843,7.684443541860715,4.670944632040082
6.968543405797425,1.473196663624767,7.731152988181116,4.506958861327431
6.983275372433673,1.5391501879356488,7.776222576794391,4.34701771265266
6.99866687431303,1.5980210669885577,7.819692753920918,4.191124058433941
7.014647084982916,1.649767051945785,7.861603994505257,4.039229362489743
7.031144755502374,1.694426886762395,7.901996288130155,3.8912624291980205
7.048089024369998,1.732098936068471,7.9409089124221355,3.74714769160342
7.065410013730682,1.7629255466947331,7.978380389338169,3.6068161019726137
7.08303926919763,1.7870815160646945,8.014448550357896,3.470210904146441
7.100910084358277,1.8047654797677546,8.049150659399361,3.3372899448915363
7.118957739155954,1.8161933697078079,8.082523558848276,3.208025710746601
7.137119672853032,1.8215933465122938,8.114603815955743,3.0824039305217985
7.155335606318155,1.8212017928550652,8.14542785526096,2.9604213328941977
7.173547624246705,1.81526008445927,8.175032068589902,2.8420829686366864
7.191700225091298,1.8040119465067,8.203452898276268,2.727399378418351
7.209740344556365,1.787701265705527,8.230726892060451,2.6163837952543005
7.22761735721342,1.766570270455011,8.256890730012994,2.5090495050102204
7.24528305991797,1.7408580193829648,8.281981225063097,2.405407441376381
7.262691640111799,1.7107991563916785,8.30603529947686,2.3054640581321375
7.279799631675716,1.6766229013922311,8.329089940058182,2.2092194976151682
7.296565860689638,1.6385522524029392,8.351182135034334,2.1166660574784295
7.312951383213667,1.5968033782465698,8.372348795609119,2.0277869462081983
7.328919416996133,1.5515851828348999,8.3926266650712,1.9425553101543016
7.344435268824482,1.5030990227607304,8.412052218172743,1.8609335100108029
7.3594662590520885,1.4515385601549313,8.43066155327285,1.7828726220503883
7.373981644653638,1.397089732854091,8.448490279493354,1.7083121383997522
7.3879525419821785,1.3399308240756385,8.465573400877352,1.6371798408119482
7.401351850222935,1.2802326141314964,8.481945199285471,1.569391823402731
7.414154176364249,1.2181585972833842,8.4976391175195,1.5048526414000132
7.426335762337083,1.1538652476644804,8.5126876439335,1.4434555648937653
7.437874414813728,1.0875023192471784,8.527122199582438,1.3850829186991307
7.4487494380062,1.0192131660926511,8.540973028769429,1.3296064916277948
7.458941569667126,0.9491350705341967,8.554269093685706,1.2768880006035694
7.468432920372468,0.8773995684795729,8.567037973691741,1.2267795970866522
7.477206916057264,0.8041327626256958,8.579305769662607,1.1791244051385383
7.485248243683521,0.7294556160236908,8.591097013713993,1.1337570821361007
7.492542799843758,0.6534842200797877,8.602434584535354,1.0905043946137734
7.499077642044556,0.5763300326997903,8.613339628481492,1.0491858029738772
7.504840942371554,0.4981000838590893,8.62383148651123,1.009614049862844
7.509821943210145,0.4188971473886232,8.633927627009859,0.9715957478785402
7.5140109146840315,0.338819879196299,8.643643584488645,0.9349319629695604
7.517399113475994,0.2579629234830648,8.65299290411834,0.8994187904339824
7.5199787427108244,0.17641698975555073,8.661987092022681,0.8648479208486353
7.52174291260838,0.09426890457720591,8.670635571231168,0.8310071935890541
7.5226856016541515,0.011601643032466191,8.678945643167058,0.7976811358656307
7.522801618084476,-0.07150565420040228,8.686922454525714,0.7646514854351817
7.522086561542472,-0.15497767146630784,8.694568969380066,0.7316976953822627
7.520536784827809,-0.23874290905166579,8.701885946333888,0.698597419634136
7.518149355737292,-0.3227336664503307,8.70887192053023,0.6651269782094562
7.514922019072789,-0.4068860095822771,8.715523190312325,0.6310618016334507
7.510853158976966,-0.4911397132541362,8.72183380832866,0.5961768545081063
7.505941761844425,-0.5754381699590247,8.72779557687374,0.5602470389261781
7.500187380144834,-0.65972825604303,8.733398047263002,0.5230475792779654
7.493590097584404,-0.7439601463122276,8.738628523055782,0.48435439102741645
7.486150496121281,-0.8280870683100984,8.743472066966056,0.44394443722831656
7.4778696254381805,-0.9120649877519093,8.747911511338339,0.40159607790179874
7.468748975560661,-0.9958522169504808,8.751927472117357,0.35708941888317586
7.458790453391156,-1.0794089384976255,8.755498366306188,0.3102066683392345
7.44799636400618,-1.1626966369702245,8.758600432989581,0.2607325108170626
7.4363693976364775,-1.2456774320059105,8.761207758097752,0.20845451036323714
7.4239126233164185,-1.3283133067427708,8.763292303201384,0.153163555889806
7.410629490248991,-1.4105652263499053,8.764823938760282,0.09465436349435025
7.396523837985492,-1.4923921422097666,8.765770482395226,0.03272605179042817
7.3815999165633945,-1.5737498782781216,8.76609774291313,-0.03281719261162115
7.365862417780614,-1.654589897283664,8.765769570987015,-0.10216534160730567
7.349316518807777,-1.734857945788786,8.764747917570942,-0.1755016259499629
7.331967939349889,-1.814492578778705,8.762992901311442,-0.25300149161841656
7.313823013562102,-1.8934235664503498,8.760462886395258,-0.3348313953539504
7.294888777897598,-1.9715701883142789,8.757114572441719,-0.4211474243210726
7.275173076014456,-2.0488394226844364,8.752903098198507,-0.512093727593457
7.254684681787611,-2.1251240431916067,8.747782160922572,-0.6078007509946353
7.233433441355695,-2.2003006381879295,8.741704153412625,-0.7083832718650634
7.211430434973815,-2.2742275738657396,8.734620320693974,-0.8139382367055866
7.1886881592351575,-2.346742927621648,8.726480938326919,-0.9245424124645985
7.165220729958941,-2.4176624246458913,8.717235514202272,-1.0402498715623636
7.141044105712482,-2.48677741784758,8.706833015486648,-1.161089341603828
7.116176331534007,-2.553852958916072,8.695222122070609,-1.2870614630794859
7.090637801944846,-2.618626016369578,8.682351507439813,-1.4181360120693145
7.06445154178115,-2.6808039045691876,8.66817014731912,-1.5542491598244037
7.037643502735458,-2.7400629954974125,8.652627655720876,-1.6953008567655399
7.010242872780483,-2.7960477921283466,8.63567464715322,-1.8411524444391534
6.9822823948592,-2.848370447858027,8.617263122708827,-1.9916246147030283
6.95379869038062,-2.896610820021686,8.597346876561797,-2.1464958501333444
6.924832582180403,-2.9403171462099373,8.575881918060464,-2.305501492477679
6.895429410718304,-2.9790074290467925,8.552826903135687,-2.4683335959417554
6.865639336427836,-3.012171607404826,8.528143567176269,-2.634641728128142
6.835517620353787,-3.0392745788036626,8.501797149894987,-2.8040348824462806
6.805124874565751,-3.0597601181212304,8.473756801070524,-2.9760846607155225
6.774527273384538,-3.0730557110265067,8.443995954463368,-3.1503298725215623
6.743796716274273,-3.0785782862201794,8.412492655738152,-3.326282677899032
6.713010933412072,-3.075740788473142,8.379229828959161,-3.503436371656834
6.68225352552734,-3.0639594848552987,8.344195465242594,-3.6812748711566536
6.651613930678787,-3.042661840296045,8.307382716531027,-3.8592839252384117
6.6211873122758265,-3.0112947372569447,8.268789877278643,-4.036964011690072
6.591074364903257,-2.9693327501630717,8.228420237161743,-4.213844836569964
6.561381037401626,-2.9162861215022544,8.186281788796043,-4.389501294278543
6.532218176186603,-2.851708027117924,8.142386775853257,-4.563570697149187
6.5037010959154244,-2.7752006677714878,8.096751068881765,-4.7357710431452045
6.47594908923771,-2.6864196874430997,8.049393358450313,-4.9059200664595615
6.449084892363278,-2.585076400907674,8.000334157785717,-5.073954815130152
6.423234128354202,-2.4709373181785557,7.949594609634416,-5.239951528369086
6.398524755172416,-2.3438204849196547,7.897195094350725,-5.404145648583093
6.3750865503232195,-2.2035882185556126,7.843153637864894,-5.5669519000674885
6.353050668137663,-2.050135912268149,7.787484118864219,-5.728984493392758
6.332549309014982,-1.8833767083785553,7.730194273930292,-5.8910776576101105
6.313715541931196,-1.7032220208548097,7.671283497354191,-6.054306832521876
6.296683321722648,-1.50955814192282,7.610740429028972,-6.2200109158677215
6.28158774030342,-1.302219560388071,7.548540319870295,-6.389815856079194
6.268565544699539,-1.0809602714263218,7.484642161309503,-6.565659429630158
6.257755941985276,-0.8454255065460573,7.418985567013201,-6.7498159115288345
6.249301686919815,-0.5951284075947374,7.351487407897912,-6.944916924931008
6.243350402843868,-0.3294400470975206,7.282038238648602,-7.153959903208374
6.240056002372893,-0.04760839278407175,7.210498639616518,-7.380286215470793
6.239579918445052,0.2511649304162094,7.13669577746181,-7.627493296113394
6.242091567749214,0.5675372389183808,7.060420844500676,-7.8992125106698055
6.247766940138398,0.9016320321141413,6.981428719393978,-8.198626712937978
6.256783260459539,1.2522783110256814,6.899442452264599,-8.527506310897135
6.269306043569796,1.615627071861105,6.814167389155627,-8.884409919480717
6.285462314288407,1.9828232324917883,6.72532328996082,-9.261589969971997
6.305290546613325,2.3365739852262375,6.6327073902611,-9.640340273521277
6.328656286465587,2.647379808688147,6.536303987525887,-9.985752811160724
6.355130084552468,2.872622048311703,6.43644645941428,-10.245147003859945
6.383856305035585,2.9647752093786224,6.333994989375681,-10.358659321006243
6.413504057129371,2.892372451887034,6.230408396165618,-10.286942813609453
6.442427781648242,2.6618115710642423,6.127538968029524,-10.039834065553208
6.469045897358884,2.316373717490326,6.027140627373991,-9.674245526594012
6.492209634533787,1.910885321375431,5.930398172108051,-9.259943249096299
6.511318487747541,1.4882477357785093,5.837798739617088,-8.848956037790716
6.5262009651053265,1.0731882098113361,5.749309179239181,-8.468498417611947
6.53693284720344,0.6767693904512115,5.664624195063062,-8.127869673081097
6.5437005411079525,0.3024069103045456,5.583345498332251,-7.826797853912936
6.546724610210998,-0.05001996351102178,5.505077519793121,-7.5609058517105625
6.546224410575888,-0.38195334135239506,5.429468461276016,-7.324535148468939
6.542404877162364,-0.6951081568623971,5.356223109791326,-7.11200896586784
6.535453795593741,-0.9910289586245582,5.285103020132648,-6.91811974908655
6.525543506007495,-1.2709358471079384,5.215921822641782,-6.7382681379128275
6.512834147536416,-1.5357010482660038,5.1485391412626536,-6.568460084918114
6.497477137053756,-1.7858809416716321,5.082854540413472,-6.405255568460628
6.47961832763704,-2.021769041219747,5.018801984728866,-6.24570849454491
6.459400637224842,-2.2434545194068827,4.956344899783417,-6.087312781925972
6.436966092030773,-2.4508795772168948,4.895471771964157,-5.927958758585582
6.412457296258604,-2.64389280745205,4.836192184378302,-5.765899434953527
6.386018368184084,-2.822297317554332,4.778533190028766,-5.5997245151842705
6.357795395008541,-2.9858930163477857,4.722535944876924,-5.428339588865804
6.327936464845063,-3.134512713345552,4.668252548988266,-5.250948097406486
6.296591337711607,-3.268051797977138,4.6157430680142015,-5.067034066309107
6.263910819731836,-3.3864913739787705,4.565072727351111,-4.876344083830036
6.230045905992049,-3.4899148600417873,4.5163092865128105,-4.678867511116487
6.1951467573916315,-3.5785182333797674,4.469520611401646,-4.474814385235386
6.159361575057834,-3.6526142733477096,4.424772467549292,-4.2645908972208195
6.122835432324357,-3.7126313377329208,4.382126558577084,-4.0487726750920086
6.085709118947028,-3.7591073563878763,4.341638831826163,-3.8280763675076392
6.048118045383149,-3.7926798418831638,4.303358068151087,-3.6033302052352987
6.010191246964317,-3.814072787273334,4.267324766098734,-3.3754443188664185
5.972050519091584,-3.8240813451151294,4.23357032291007,-3.145381620652974
5.933809705640433,-3.82355516239926,4.20211650670354,-2.914130027253281
5.89557415401644,-3.813381189026949,4.172975206431007,-2.6826767210892943
5.8574403421261705,-3.794466690575827,4.146148439220114,-2.4519850335869804
5.819495675220412,-3.7677230876743284,4.121628588884244,-2.222974395857273
5.781818444343669,-3.7340511225495936,4.0993988449256715,-1.9965036525188087
5.744477933118173,-3.6943277259063154,4.079433808400483,-1.7733578824445098
5.70753465585911,-3.6493948311322857,4.061700229576038,-1.5542387251401035
5.671040707547787,-3.6000502638714593,4.046157842324638,-1.339758080796282
5.635040204909073,-3.5470407281319845,4.032760261516675,-1.1304349417690736
5.599569797627753,-3.491056818953046,4.021455912098984,-0.9266950274623551
5.564659229438223,-3.4327299185549096,4.012188961824361,-0.7288728354235734
5.5303319302526734,-3.3726307787888126,4.004900233470125,-0.5372156890018662
5.496605622464785,-3.3112695572377246,3.9995280765801065,-0.351889354393384
5.463492926892408,-3.2490970560257777,3.996009183036173,-0.17298481406118224
5.43100195633215,-3.1865069089481772,3.994279334895561,-0.0005258151095606511
5.399136887242668,-3.1238384710673857,3.9942740767444658,0.1655231445238929
5.367898502531994,-3.06138018234506,3.9959293081897047,0.3252486769508238
5.337284700708543,-2.9993732001641202,3.9991817949592128,0.47878044129744657
5.307290968706902,-2.9380151219988515,4.003969599372187,0.6262833298777298
5.277910817486914,-2.877463646708006,4.010232432670964,0.767950023637126
5.249136181019834,-2.817840049169373,4.017911932907335,0.9039939886699342
5.22095778052814,-2.759232366997216,4.026951872794035,1.0346429433783995
5.193365456858168,-2.7016982191602175,4.037298302227819,1.1601327902385818
5.166348474666566,-2.645267194201466,4.0488996301302045,1.2807019773450374
5.139895802724551,-2.5899427606445475,4.0617066499036545,1.3965862328770768
5.113996375118106,-2.5357036646461073,4.075672512232425,1.5080136003029558
5.088639338471644,-2.4825047910143163,4.090752648235455,1.6151996936472819
5.063814290561501,-2.4302774747526117,4.1069046451719275,1.7183430910181607
5.039511515813975,-2.3789292631550056,4.124088076082109,1.8176207919333658
5.015722223182425,-2.3283431455143266,4.142264284001443,1.9131836816490007
4.992438791727282,-2.2783762915690216,4.161396120817932,2.005151976363277
4.969655028811592,-2.2288583742341173,4.181447640581565,2.0936106703175508
4.9473664450692505,-2.179589600504657,4.202383747284741,2.178605073419557
4.925570549064204,-2.130338639961627,4.224169798018936,2.2601366198150434
4.904267162664588,-2.080840725023309,4.246771164217087,2.338159245959262
4.883458755414355,-2.030796299955434,4.27015275667668,2.4125767793856694
4.8631507924148005,-1.9798707102196276,4.294278524470537,2.483241937427355
4.843352085312604,-1.9276955349829061,4.3191109438448105,2.5499576879489556
4.824075129962775,-1.8738722468506432,4.3446105207243,2.612481835231155
4.805336407494269,-1.8179788941666786,4.370735339076612,2.670535709100942
4.787156618552602,-1.7595803917100756,4.397440696167622,2.723817685223082
4.7695608146355015,-1.6982427231700759,4.424678873019853,2.7720218788595883
