th1 (rad),w1 (rad/s),th2 (rad),w2 (rad/s),a1 (rad/s^2),a2 (rad/s^2)
4.089606977549986,1.383479277308085,2.6081806882168843,-2.627716880371062,4.6773947736016765,-3.4941340957475564
4.103441770323067,1.4302532250441018,2.581903519413174,-2.6626582213285377,4.581229079890529,-3.385471541444056
4.117744302573508,1.4760655158430072,2.5552769371998885,-2.696512936742978,4.496005369199583,-3.2810519477377005
4.132504957731938,1.521025569535003,2.5283118078324587,-2.729323456220355,4.422330493180438,-3.1805313560987565
4.147715213427288,1.5652488744668074,2.501018573270255,-2.761128769781343,4.3608348495054505,-3.08340555037185
4.163367702171956,1.6088572229618618,2.4734072855724416,-2.7919628252850615,4.312191468067791,-2.989005151811089
4.179456274401574,1.6519791376425397,2.445487657319591,-2.8218528768031725,4.27713640063098,-2.896488374763161
4.195976065778,1.6947505016488495,2.4172691285515593,-2.8508177605508043,4.256490261936798,-2.804831222165315
4.212923570794488,1.7373154042682175,2.3887609509460512,-2.8788660727724573,4.251180694254576,-2.712815131686479
4.23029672483717,1.7798272112107634,2.3599722902183267,-2.905994224089322,4.262265366852223,-2.619012416342881
4.248094996949278,1.8224498648792855,2.3309123479774336,-2.932184348252751,4.290954839091532,-2.521770330120808
4.26631949559807,1.865359413270201,2.3015905044949063,-2.957402051553959,4.33863415907512,-2.4191953038714824
4.284973089730772,1.908745754860952,2.2720164839793666,-2.9815940045926737,4.406881369353647,-2.3091399413207725
4.304060547279382,1.9528145685544887,2.24220054393344,-3.0046854040058815,4.497480056293799,-2.1891968735159257
4.323588692964926,1.9977893691174267,2.2121536898933813,-3.0265773727410408,4.6124215978253265,-2.0567057097982246
4.343566586656101,2.0439135850956798,2.1818879161659708,-3.047144429839023,4.7538907079294415,-1.9087822866501458
4.364005722507057,2.091452492174974,2.1514164718675803,-3.0662322527055244,4.924225124269514,-1.742383390498587
4.384920247428807,2.140694743417669,2.120754149340525,-3.0836560866105103,5.125836772237482,-1.5544252322370904
4.406327194862984,2.191953111140044,2.08991758847442,-3.099200338932881,5.3610775516678855,-1.3419800860758255
4.428246725974384,2.245563886656723,2.0589255850850914,-3.1126201397936395,5.632028444634174,-1.1025821246303624
4.450702364840952,2.3018841711030644,2.027799383687155,-3.123645961039943,5.940186951365403,-0.834679183207372
4.473721206551983,2.3612860406167187,1.9965629240767555,-3.1319927528720166,6.286026944539417,-0.5382691375684904
4.4973340669581505,2.424146310062113,1.9652429965480354,-3.1373754442477013,6.668410374264571,-0.21575283502924414
4.521575530058771,2.4908304138047583,1.9338692421055583,-3.1395329725979937,7.08384714152012,0.12698750193197483
4.5464838341968195,2.5616688852199596,1.9024739123795784,-3.138263097578674,7.525634695752913,0.4793246686598133
4.572100523049019,2.6369252321774885,1.8710912814037917,-3.1334698508920757,7.982969079650171,0.8245630782716422
4.598469775370794,2.7167549229739905,1.839756582894871,-3.1252242201093594,8.440206185862838,1.1388055443447935
4.625637324600534,2.8011569848326188,1.8085043406937773,-3.1138361646659116,8.876555430300709,1.3904102052853544
4.65364889444886,2.889922539135626,1.7773659790471181,-3.099932062613058,9.266575234840966,1.5405672228443412
4.682548119840217,2.9825882914840354,1.7463666584209876,-3.0845263903846147,9.581850300895939,1.5455481599307117
4.712374002755057,3.0784067944929947,1.7155213945171415,-3.0690709087853074,9.794087385256738,1.3609856458044527
4.743158070699987,3.1763476683455623,1.6848306854292885,-3.0554610523272627,9.87951464966664,0.9480446146981254
4.774921547383443,3.2751428148422286,1.654276074906016,-3.0459806061802817,9.823943268918493,0.2805904530986936
4.807672975531866,3.3733822475314135,1.623816268844213,-3.0431747016492947,9.627323524126924,-0.6483117702692249
4.84140679800718,3.4696554827726827,1.59338452182772,-3.049657819351987,9.3063891812405,-1.822605553341363
4.876103352834908,3.562719374585088,1.5628879436342002,-3.0678838748854007,8.894285813833754,-3.2037985267837423
4.911730546580759,3.6516622327234254,1.5322091048853463,-3.099921860153238,8.436931479258067,-4.736301028589772
4.948247168907993,3.736031547516006,1.501209886283814,-3.147284870439136,7.986938422897154,-6.356423616636319
4.985607484383153,3.8159009317449777,1.4697370375794225,-3.210849106605499,7.596725500095178,-8.002724488824711
5.023766493700603,3.8918681867459295,1.4376285465133676,-3.2908763514937465,7.312599252414558,-9.625145190878069
5.062685175568062,3.964994179270075,1.4047197829984301,-3.387127803402527,7.171069669570334,-11.191089046678952
5.102335117360763,4.036704875965778,1.3708485049644048,-3.4990386938693168,7.1978191886316605,-12.687828011561477
5.14270216612042,4.108683067852095,1.3358581180257116,-3.6259169739849315,7.4089739859446,-14.12177014325885
5.183788996798941,4.18277280771154,1.2995989482858623,-3.76713467541752,7.8138997365688985,-15.515785577645572
5.2256167248760566,4.260911805077229,1.2619276015316871,-3.922292531193976,8.418695858216841,-16.905909460654865
5.268225842926829,4.345098763659397,1.2227046762197473,-4.091351625800525,9.22977086283538,-18.338489229039332
5.311676830563423,4.437396472287751,1.181791159961742,-4.274736518090918,10.257185662882755,-19.86846035812562
5.356050795286301,4.539968328916578,1.139043794780833,-4.473421121672174,11.517733580601398,-21.559100637233453
5.401450478575466,4.655145664722593,1.0943095835641112,-4.689012128044508,13.03793363270267,-23.483412810193684
5.448001935222692,4.785525001049619,1.0474194622836661,-4.9238462561464456,14.85724469430615,-25.727224823674785
5.495857185233188,4.934097447992681,0.9981809997222016,-5.1811185043831935,17.03187712404695,-28.394133856631022
5.545198159713115,5.10441621923315,0.9463698146783697,-5.465059842949504,19.63958232430562,-31.612474826684586
5.5962423219054465,5.300812042476206,0.8917192162488746,-5.78118459121635,22.785667890751522,-35.544408095789
5.649250442330208,5.528668721383721,0.8339073703367111,-6.13662867217424,26.609963033710606,-40.39660911932371
5.704537129544046,5.794768351720827,0.7725410836149688,-6.540594763367477,31.292808574866992,-46.42986818303059
5.7624848130612545,6.107696437469497,0.707135135981294,-7.004893445197784,37.05331620392835,-53.958317277936075
5.823561777435949,6.47822959950878,0.6370862015293162,-7.5444766179771445,44.11951256151359,-63.3101611798569
5.888344073431037,6.919424725123916,0.5616414353495447,-8.177578229775714,52.612643583307346,-74.66984623858208
5.957538320682277,7.445551160956989,0.4798656530517875,-8.924276692161534,62.191266206541506,-87.58657338321876
6.031993832291847,8.067463823022404,0.39062288613017215,-9.800142425993721,71.08907824965269,-99.63712273728737
6.112668470522071,8.778354605518931,0.29262146187023497,-10.796513653366596,73.96806171365829,-103.42977667717943
6.200452016577261,9.518035222655515,0.184656325336569,-11.83081142013839,59.283632157401165,-82.9122900250859
6.295632368803816,10.110871544229527,0.0663482111351851,-12.65993432038925,14.497157328262501,-20.633470192837002
6.396741084246112,10.255843117512152,-0.060251132068707386,-12.866269022317619,-47.91223193684226,65.969978444965
6.499299515421233,9.776720798143728,-0.18891382229188358,-12.206569237867969,-85.88828043894293,118.44399682810416
6.597066723402671,8.917837993754299,-0.3109795146705633,-11.022129269586927,-87.38124622152014,120.39134182738499
6.686245103340214,8.044025531539097,-0.42120080736643256,-9.818215851313077,-73.70852507010298,101.55967274414175
6.7666853586556055,7.306940280838067,-0.5193829658795633,-8.80261912387166,-59.192776221224086,81.71271226104226
6.839754761463986,6.715012518625826,-0.6074091571182799,-7.985492001261237,-47.47508148812392,65.78987203347906
6.906904886650245,6.240261703744586,-0.6872640771308923,-7.327593280926447,-38.57517329412274,53.76124310020042
6.96930750368769,5.854509970803359,-0.7605400099401568,-6.789980849924443,-31.851176326467474,44.710483593816534
7.027852603395724,5.535998207538684,-0.8284398184394013,-6.342876013986277,-26.714029197874833,37.80686386824372
7.08321258547111,5.268857915559936,-0.891868578579264,-5.96480737530384,-22.730111104993814,32.43848733862783
7.13590116462671,5.041556804509998,-0.9515166523323024,-5.640422501917562,-19.597102146875216,28.174778920005163
7.18631673267181,4.845585783041246,-1.007920877351478,-5.3586747127175105,-17.10652771597342,24.71275622973408
7.234772590502223,4.674520505881512,-1.0615076244786532,-5.1115471504201695,-15.114331713526699,21.835502506077383
7.2815177955610375,4.523377188746245,-1.112623095982855,-4.893192125359396,-13.520496511045842,19.383878204947614
7.3267515674484995,4.388172223635787,-1.1615550172364488,-4.6993533433099195,-12.255254527487317,17.238078014142122
7.370633289684857,4.265619678360914,-1.2085485506695481,-4.526972563168498,-11.269546916613884,15.305994779884232
7.413289486468466,4.152924209194775,-1.253818276301233,-4.373912615369656,-10.528024466391864,13.516330958354045
7.454818728560414,4.047643964530856,-1.2975574024549297,-4.238749305786116,-10.003451300214023,11.815149154606164
7.495295168205723,3.9476094515287157,-1.3399448955127908,-4.120597814240054,-9.671828193487158,10.164957994144768
7.5347712627210095,3.850891169593844,-1.3811508736551914,-4.018948234298606,-9.507971262416792,8.545506626571337
7.573280174416948,3.7558114569696763,-1.4213403559981774,-3.933493168032893,-9.481716095553578,6.95526698665116
7.610838288986645,3.6609942960141404,-1.4606752876785063,-3.8639404981663814,-9.555342160374295,5.412248279385518
7.647448231946786,3.5654408744103976,-1.4993146926601701,-3.8098180153725263,-9.683090082539302,3.9525708289831307
7.68310264069089,3.4686099735850044,-1.5374128728138954,-3.770292307082695,-9.813548755721133,2.625486060056643
7.717788740426741,3.3704744860277933,-1.5751157958847224,-3.744037446482128,-9.89503844206423,1.4845425493492783
7.7514934852870185,3.271524101607151,-1.6125561703495437,-3.7291920209886356,-9.882994503122863,0.5762477061159034
7.78420872630309,3.1726941565759224,-1.64984809055943,-3.7234295439274767,-9.747252783767562,-0.07083774274518821
7.81593566786885,3.075221628738247,-1.6870823859987047,-3.7241379213549286,-9.476764133591878,-0.4531191814240352
7.846687884156232,2.980453987402328,-1.724323765212254,-3.728669113169169,-9.080048792362998,-0.5927906608784134
7.876492424030255,2.889653499478698,-1.7616104563439456,-3.7345970197779534,-8.581344510259436,-0.5324987447129058
7.905388959025042,2.8038400543761037,-1.7989564265417253,-3.7399220072250823,-8.014005633459691,-0.3261425546523937
7.933427359568803,2.7236999980415066,-1.836355646613976,-3.7431834327716063,-7.413428737555766,-0.02907510757974909
7.960664359549218,2.649565710665949,-1.8737874809416921,-3.743474183847404,-6.811414046777675,0.30960152197615465
7.987160016655878,2.5814515701981726,-1.911222222780166,-3.7403781686276423,-6.232874438009202,0.6514000658426464
8.012974532357859,2.5191228258180804,-1.9486260044664425,-3.733864167969216,-5.694818730934236,0.9696216901383042
8.03816576061604,2.462174638508738,-1.9859646461461347,-3.724167951067833,-5.206959191561654,1.2482893357167841
8.062787507001127,2.4101050465931215,-2.023206325656813,-3.7116850577106653,-4.773165577689096,1.4799491610535183
8.08688855746706,2.3623733908162308,-2.06032317623392,-3.69688556610013,-4.393142396896829,1.6632138045578428
8.11051229137522,2.3184419668472627,-2.0972920318949213,-3.6802534280545514,-4.0639506527231415,1.8005678021892708
8.133696711043694,2.2778024603200313,-2.1340945661754667,-3.6622477500326585,-3.7812091933482175,1.8966526761216989
8.156474735646894,2.239990368386549,-2.1707170436757934,-3.6432812232714413,-3.5399509053029834,1.9570542631527175
8.17887463933076,2.204590859333519,-2.207149855908508,-3.623710680639914,-3.335180089070007,1.9875184305469216
8.200920547924095,2.171239058442819,-2.243386962714907,-3.6038354963344448,-3.162201242823691,1.9934910943123525
8.222632938508523,2.1396170460145822,-2.2794253176782515,-3.583900585391321,-3.016787662863832,1.97988353427583
8.24402910896867,2.109449169385944,-2.3152643235321646,-3.5641017500485628,-2.895245784393484,1.950983184217255
8.265123600662529,2.0804967115420094,-2.35090534103265,-3.54459191820639,-2.7944165303899364,1.9104516015650594
8.28592856777795,2.0525525462381102,-2.386351260214714,-3.5254874021907394,-2.7116419871348896,1.8613699671803523
8.30645409324033,2.0254361263667615,-2.4216061342366215,-3.506873702518936,-2.6447157022035825,1.8063067077793902
8.326708454503997,1.9989889693447256,-2.4566748712618107,-3.4888106354411423,-2.591827747159466,1.7473918845764302
8.346698344197444,1.9730706918731309,-2.4915629776162223,-3.471336716595378,-2.5515108697121254,1.686389682661825
8.366429051116175,1.9475555831760096,-2.526276344782176,-3.45447281976876,-2.522590965790298,1.6247645726461746
8.385904606947935,1.9223296735181066,-2.5608210729798633,-3.4382251740422984,-2.5041431996239396,1.5637392671218044
8.405127903683116,1.8972882415218673,-2.5952033247202864,-3.4225877813710803,-2.4954539831202496,1.504344038250933
8.424100786098334,1.8723337016906647,-2.629429202533997,-3.407544340988571,-2.495988405470705,1.4474577058499967
8.44282412311524,1.8473738176359578,-2.663504645943883,-3.393069763930071,-2.505362384282189,1.3938409197903443
8.4612978612916,1.822320193793136,-2.6974353435831837,-3.3791313547321673,-2.5233186629799116,1.3441624218603543
8.479521063229532,1.797087007163337,-2.7312266571305055,-3.3656897305135636,-2.5497057254797757,1.2990188903227502
8.497491933301164,1.7715899499085392,-2.764883554435641,-3.352699541610336,-2.5844586897641983,1.2589488126862507
8.51520783280025,1.7457453630108972,-2.7984105498517446,-3.3401100534834733,-2.627581249955856,1.2244406401237122
8.53266528643036,1.7194695505113387,-2.8318116503865793,-3.3278656470822363,-2.679127749321938,1.1959352774489709
8.549859981935473,1.6926782730181194,-2.8650903068574016,-3.3159062943077466,-2.739184482602251,1.1738227761884747
8.566786764665654,1.665286428192097,-2.898249369800479,-3.304168066545862,-2.8078493521291445,1.158432945180882
8.583439628947575,1.6372079346708055,-2.9312910504659375,-3.292583737094053,-2.885209053465714,1.150019497437899
8.599811708294283,1.6083558441361483,-2.964216887836878,-3.281083542119674,-2.971313065846844,1.1487373450680123
8.615895266735643,1.57864271347768,-2.997027723258075,-3.269596168668994,-3.0661439016136653,1.1546127763314524
8.631681693870421,1.5479812744615433,-3.0297236849447646,-3.258050040905679,-3.169583364941504,1.167506549492758
8.647161506615037,1.5162854408121282,-3.0623041853538213,-3.2463749754107516,-3.281375024840452,1.1870704710704358
8.662324361023158,1.4834716905637237,-3.094767935107929,-3.234504270700047,-3.401083758622802,1.2126988411258075
8.677159077928795,1.4494608529774957,-3.1271129778149294,-3.222377282288789,-3.5280540924390817,1.2434772747633662
8.69165368645857,1.414180312053105,-3.1593367506378174,-3.2099425095411553,-3.661370144722099,1.2781328317264495
8.705795489579101,1.377566610605884,-3.191436175733229,-3.197161181223891,-3.799821200427099,1.3149910136831675
8.71957115568516,1.339568398601613,-3.223407787545468,-3.1840112710870594,-3.9418781634866242,1.3519468217742034
8.732966839671175,1.3001496169667466,-3.2552479002563386,-3.1704918028693174,-4.085687110931705,1.3864583742914616
8.745968335840843,1.2592927458574295,-3.2869528182850316,-3.1566272191264027,-4.229086572015866,1.4155721091777398
8.758561263299416,1.2170018801372708,-3.3185190904762956,-3.142471498034625,-4.3696545948102195,1.4359878104497965
8.770731282100789,1.1733053341891686,-3.349943805456642,-3.1281116199301273,-4.504789791684301,1.4441691227928095
8.78246433544268,1.1282574362723257,-3.381224921655943,-3.1136699287021994,-4.631827191818814,1.4365006071168664
8.793746909805405,1.0819391643541376,-3.4123616209429652,-3.0993049226310307,-4.748185009212214,1.4094859332831653
8.804566301448947,1.0344573142620155,-3.4433546701692754,-3.085210063298199,-4.851532925125493,1.3599742896923104
8.814910874591567,0.9859419850107606,-3.4742067708022573,-3.071610320401276,-4.939967184916496,1.2853948940319813
8.824770294441674,0.9365423131615956,-3.50492287400627,-3.058756371460956,-5.012173990395764,1.1839743622586507
8.83413571757329,0.886420573257638,-3.5355104377208795,-3.0469166278383697,-5.067561537378723,1.0549102862905737
8.842999923305866,0.8357449578838507,-3.565979603999263,-3.036367524975464,-5.106343336448992,0.8984776728594882
8.851357372884705,0.7846815245193608,-3.5963432792490178,-3.0273827482468687,-5.129561086738015,0.7160527716521305
8.859204188129898,0.7333859136519807,-3.6266171067314863,-3.0202222205303473,-5.139043371112564,0.5100498931324131
8.866538047266417,0.6819954799408551,-3.65681932893679,-3.0151217215990234,-5.137305158845209,0.2837787915640971
8.873358002065824,0.630622428352403,-3.68697054615278,-3.012283933683382,-5.127400704005606,0.041240532778509004
8.879664226349348,0.579348421312347,-3.7170933854896138,-3.0118715283555972,-5.112747441881163,-0.2131135343059559
8.885457710562472,0.5282209468935354,-3.7472121007731696,-3.014002663698657,-5.096940195860791,-0.47463298058256065
8.890739920031407,0.4772515449349275,-3.7773521274101562,-3.0187489935044827,-5.0835735574967496,-0.738705203833589
8.895512435480757,0.42641580935996,-3.807539617345201,-3.0261360455428186,-5.076086512314623,-1.0009590055715865
8.899776593574357,0.3756549442368138,-3.837800977800629,-3.0361456355985346,-5.077638396097193,-1.2574228200916528
8.903533143016725,0.32487856027584183,-3.8681624341566145,-3.0487198637994513,-5.091020186765805,-1.5046326408317543
8.906781928619484,0.2739683584081838,-3.898649632794609,-3.063766190207769,-5.118600786036058,-1.7396906721369498
8.909521612203566,0.2227823505478232,-3.9292872946966866,-3.081163096929138,-5.162304762897232,-1.9602800478985578
8.911749435709044,0.17115930291885087,-3.960098925665978,-3.100765897408124,-5.223616111833425,-2.16464349429808
8.913461028738233,0.11892314180051662,-3.9911065846400593,-3.1224123323511046,-5.303601776038824,-2.351534795456916
8.914650260156238,0.06588712404012838,-4.022330707963571,-3.145927680305674,-5.402948731835864,-2.5201517349766904
8.91530913139664,0.011857636721769732,-4.053789984766627,-3.171129197655441,-5.522009032627369,-2.670058248630466
8.915427707763858,-0.043362453604503956,-4.085501276743182,-3.1978297801417455,-5.660848112132701,-2.8011021951755555
8.914994083227812,-0.09997093472583096,-4.1174795745446,-3.225840802093501,-5.819292652431739,-2.913333705336069
8.913994373880554,-0.15816386125014836,-4.149737982565535,-3.254974139146862,-5.996975302118245,-3.006927683583861
8.912412735268052,-0.21813361427133082,-4.182287723957003,-3.2850434159827007,-6.193374407914864,-3.08211281669337
8.910231399125339,-0.28006735835047947,-4.21513815811683,-3.315864544149634,-6.407847664100257,-3.1391084340368005
8.907430725541834,-0.34414583499148205,-4.248296803558326,-3.3472556284900024,-6.639659179613641,-3.1780697769370767
8.90398926719192,-0.41054242678761843,-4.281769359843226,-3.379036326259373,-6.887999920507206,-3.199041655739339
8.899883842924043,-0.47942242599269047,-4.31555972310582,-3.4110267428167664,-7.152001821959467,-3.2019200796944354
8.895089618664116,-0.5509424442122851,-4.349669990533988,-3.443045943613711,-7.430746099578236,-3.1864212075982015
8.889580194221994,-0.6252499052080674,-4.384100449970125,-3.474910155689693,-7.723266445245754,-3.1520568570228558
8.883327695169912,-0.702482569660525,-4.418849551527022,-3.5064307242599217,-8.028547888383148,-3.0981157991064174
8.876302869473307,-0.7827680485443566,-4.453913858769622,-3.537411882250986,-8.345522157390535,-3.0236501291755586
8.868475188987864,-0.866223270118262,-4.489287977592132,-3.5676483835427417,-8.673060403833336,-2.92746611913915
8.859812956286682,-0.9529538741565953,-4.524964461427559,-3.596923044734133,-9.00996416663178,-2.8081191070520877
