th1 (rad),w1 (rad/s),th2 (rad),w2 (rad/s)
3.3360558335950135,-0.8229488973606438,4.917220796601981,-0.5317444953963982
3.327826344621407,-0.8021342618003416,4.911903351648017,-0.4423494343890438
3.3198050020034033,-0.7824135533763826,4.907479857304127,-0.35246519569608376
3.3119808664696393,-0.7636576336725192,4.903955205347166,-0.2621285305704903
3.304344290132914,-0.7457358401845529,4.901333920041461,-0.1713721240008359
3.2968869317310685,-0.7285161162137801,4.899620198801452,-0.0802245572086978
3.2896017705689307,-0.7118651146625518,4.898817953229365,0.011289774739444716
3.282483119422305,-0.6956482761652584,4.898930850976759,0.10315078471110624
3.2755266366606524,-0.6797298817534846,4.8999623588238705,0.19534284904987104
3.2687293378431175,-0.6639730800715249,4.901915787314369,0.28785499116566665
3.262089607042402,-0.6482398890391825,4.904794337226026,0.3806810874085815
3.25560720815201,-0.6323911718135391,4.908601148100112,0.47382008944072707
3.249283296433875,-0.6162865869406124,4.913339348994519,0.5672762573182447
3.2431204305644687,-0.5997845127218325,4.919012111567701,0.6610593974992279
3.2371225854372505,-0.5827419460595411,4.925622705542693,0.7551850999883223
3.231295165976655,-0.565014376401139,4.933174556542577,0.8496749687975718
3.2256450222126434,-0.546455635884765,4.941671306230552,0.9445568398252279
3.2201804658537956,-0.5269177274133161,4.951116874628805,1.0398649801060778
3.2149112885796622,-0.5062506331626884,4.961515524429865,1.1356402621415873
3.2098487822480353,-0.48430210698083365,4.972871927051281,1.2319303066458795
3.205005761178227,-0.46091745527566835,4.9851912301177395,1.3287895865115813
3.2003965866254704,-0.43593931234395433,4.998479125982855,1.4262794840727662
3.196037193502031,-0.40920741768509955,5.012741920823583,1.5244682927838136
3.19194511932518,-0.38055840470157326,5.027986603751421,1.6234311532055024
3.188139535278164,-0.3498256123421913,5.044220915283476,1.7232499116562723
3.184641279154742,-0.3168389337284943,5.061453414400039,1.8240128880131876
3.181472889817457,-0.2814247186503517,5.079693543280171,1.9258145369050421
3.1786586426309533,-0.2434057500543545,5.098951688649222,2.0287549839097134
3.17622458513041,-0.20260131829983358,5.119239238488319,2.132939415344174
3.1741985719474113,-0.1588274210312992,5.140568632641761,2.238477296834634
3.1726102977370982,-0.11189712099953317,5.162953405610107,2.3454813921228217
3.1714913265271027,-0.061621099009631614,5.1864082195313355,2.454066549591701
3.1708751155370063,-0.007808444287411738,5.2109488850272525,2.564348219927171
3.170797031094132,0.04973227022785097,5.236592367226525,2.676440664395828
3.1712943537964104,0.11119157509181185,5.263356773870483,2.7904548097370574
3.1724062695473285,0.17675729695504278,5.291261321967854,2.906495703091788
3.174173842516879,0.2466122959638301,5.320326278998771,3.024659519327536
3.176639965476517,0.3209316856607282,5.350572874192046,3.1450300743627735
3.1798492823331244,0.39987947408030605,5.382023174935674,3.267674802647319
3.1838480770739275,0.4836045696215614,5.414699922962147,3.3926401660494645
3.1886841227701432,0.5722361054942667,5.448626324622642,3.5199464764849564
3.194406483825086,0.665878053760997,5.483825789387491,3.64958213732658
3.201065264362696,0.7646031260819102,5.520321610760757,3.781497340669005
3.208711295623515,0.8684459951064175,5.558136584167447,3.915597300518553
3.217395755574579,0.9773959197461533,5.597292557172633,4.051735157202891
3.2271697147720406,1.0913889204735745,5.637809908744662,4.189704756278226
3.238083603976776,1.2102997274730116,5.679706956307444,4.329233585217888
3.250186601251506,1.3339338134585574,5.722999292159623,4.4699762405746855
3.2635259393860916,1.4620199204817919,5.76769905456537,4.611508891928373
3.2781461385909094,1.594203589288456,5.813814143484654,4.753325298374227
3.294088174483794,1.7300422904148407,5.861347396468396,4.894835006624713
3.3113885973879422,1.8690028242411092,5.9102957465346435,5.035364401585612
3.330078625630353,2.0104616855298474,5.9606493905505,5.174161272618615
3.3501832424856515,2.153709057896251,6.012391003276686,5.310403483197054
3.371720333064614,2.297956997659158,6.065495038108656,5.443212172605133
3.3946999030412055,2.4423521721079764,6.119927159834708,5.571669667045453
3.4191234247622853,2.5859932314986405,6.175643856505162,5.694841937123292
3.444983357077272,2.7279525282028145,6.232592275876395,5.811805028261761
3.4722628823593,2.8673014784774713,6.2907103261590125,5.921674447330013
3.5009358971440747,3.003138437289588,6.3499270706323125,6.023636066325319
3.5309672815169706,3.1346175821695366,6.410163431295565,6.116976766348369
3.562313457338666,3.2609770397915114,6.471333198959049,6.201112855926117
3.5949232277365812,3.381564392477129,6.53334432751831,6.2756143065333525
3.6287388716613527,3.495857803955695,6.596100470583643,6.340223077341658
3.66369744970091,3.60348130678754,6.659502701357059,6.394864237254874
3.6997322627687854,3.704213265925163,6.723451343729608,6.439649184705605
3.736774395428037,3.797987612121057,6.787847835576664,6.474870935103741
3.7747542715492477,3.884888045333052,6.852596544927701,6.500992099447014
3.813603152002578,3.965135959987052,6.917606465922171,6.518626728081601
3.8532545116024486,4.039073273082541,6.982792733202987,6.528517576032337
3.893645244333274,4.107141600620835,7.04807790896331,6.531510528845152
3.934716660339482,4.169859316176988,7.113393014251762,6.5285279137115095
3.976415253501252,4.227797954094424,7.178678293388877,6.520542242144967
4.018693233042196,4.28155922529256,7.243883715810327,6.508551638135635
4.061508825295122,4.331753642298669,7.308969232191683,6.493557855656227
4.104826361718109,4.378981448009642,7.373904810748245,6.4765474327881885
4.148616176198205,4.423816248681187,7.438670285076127,6.458476205851338
4.192854338685017,4.466791493348035,7.50325504713464,6.440257140400527
4.237522253618497,4.508389734967279,7.567657618538646,6.422751237498185
4.28260615096817,4.549034458265993,7.631885130913628,6.4067611428724
4.32809649555083,4.589084163006521,7.695952742342352,6.39302701559266
4.373987337180895,4.628828341763564,7.759883012498279,6.382224190027341
4.420275620598531,4.668484978696451,7.823705254398552,6.374962177330894
4.466960470385495,4.708199210263676,7.887454876171861,6.371784588665453
4.514042462488132,4.748042821393618,7.951172722058516,6.373169611863117
4.561522890702069,4.788014293943579,8.014904418177148,6.379530728714134
4.609403033641504,4.828039172827689,8.07869972546429,6.391217416285382
4.657683425369781,4.867970565207229,8.142611899627143,6.408515629450075
4.706363131021853,4.907589637375263,8.206697055921644,6.431647911643186
4.755439027395606,4.946606021427738,8.271013535038076,6.460773026554387
4.8049050876098836,4.9846580894352135,8.33562126530362,6.495985045815588
4.854751668504235,5.021313097224259,8.400581115761776,6.537311868227641
4.904964799476478,5.056067244084926,8.465954234444052,6.58471318669031
4.955525471917327,5.08834573998001,8.531801366310955,6.638077962054194
5.006408929317128,5.117503019348828,8.598182145931496,6.697221511035244
5.057583959510616,5.142823291280262,8.665154361041848,6.761882370460437
5.109012192423418,5.163521669962701,8.732773184746453,6.8317191643889466
5.160647409123046,5.17874618616539,8.801090376390341,6.906307775200907
5.2124348709846995,5.187581037820914,8.87015345414235,6.985139204305014
5.264310681362908,5.18905149125646,8.940004846185401,7.067618600326167
5.316201196275473,5.182130887343918,9.010681032188662,7.153066027210403
5.368022505148912,5.165750228842,9.082211692460767,7.240719632592786
5.419680007437332,5.138810813362921,9.154618888786695,7.329741944606758
5.4710681155709615,5.100200314901053,9.227916308232762,7.4192300551701225
5.522070118719972,5.048812588598961,9.302108608784463,7.508230418063739
5.572558244605961,4.98357126258098,9.377190912965101,7.595758877674779
5.622393957231771,4.903456876693673,9.453148501741849,7.680826328268437
5.671428525998707,4.807536930690979,9.529956765024533,7.762470071191671
5.719503895305617,4.69499772963543,9.60758146573645,7.839790490499971
5.766453872601971,4.565176398626984,9.68597937064145,7.911992130024255
5.8121056365882415,4.417590941547067,9.765099291941691,7.9784276776450165
5.8562815460037125,4.251965817751883,9.844883568718142,8.03864282360844
5.898801204181232,4.068250294298581,9.925269996954226,8.09241955792366
5.939483707124218,3.866626879497077,10.006194192533462,8.13981531208291
5.978149975919188,3.647507507536467,10.087592345654292,8.181195522014567
6.014625050994553,3.4115158249863238,10.169404300874437,8.217257742617925
6.048740209244416,3.1594548660891197,10.251576878300616,8.249046371406932
6.080334757905307,2.892260469701264,10.334067342014686,8.277958266225362
6.10925736260232,2.610941815115976,10.416846924676939,8.305740940706777
6.13536678075348,2.316511251069411,10.499904334084007,8.33448643351842
6.158531893264174,2.0099060009152923,10.583249198419193,8.366625224457195
6.178630953273327,1.6919042467746783,10.666915450663765,8.404925607946014
6.195549995741074,1.3630375110618553,10.750964706743225,8.45250469438638
6.209180370851692,1.0235002470696983,10.835489753687089,8.512857713719372
6.21941537332239,0.6730563119739699,10.920618330824283,8.589912575455426
6.226145936442129,0.3109408668179948,11.006517456578838,8.688116620345847
6.2292553451103085,-0.06424414405116063,11.093398622782296,8.812561749306695
6.228612903669797,-0.4546411605007579,11.181524240275362,8.969151304454815
6.2240664920647895,-0.8632486003808226,11.27121575331991,9.164803743342897
6.215434006060981,-1.2940089493278684,11.362863790753337,9.407665835149055
6.202493916567702,-1.7518055670729016,11.456940449104827,9.707251711928757
6.184975860896973,-2.242196371960667,11.554012966224114,10.074286837308534
6.162553897177366,-2.7704731653101664,11.6547558345972,10.51971326461939
6.1348491655242645,-3.339111837989739,11.759952967243393,11.051594327855364
6.101458047144368,-3.941666612809396,11.870468910521947,11.667244813018844
6.062041381016273,-4.549851235810576,11.987141358652135,12.336028383024619
6.016542868658168,-5.091830804850204,12.110501642482381,12.969826838851645
5.965624560609666,-5.434738491353762,12.240199910870897,13.398525430743776
5.911277175696129,-5.422937514777848,12.374185165178336,13.420668892472628
5.857047800548351,-5.009646537457341,12.508391854103062,12.980183886679361
5.806951335173777,-4.331163679937102,12.638193692969855,12.262521767748591
5.763639698374407,-3.573970226668587,12.760818910647341,11.51145554091633
5.727899996107721,-2.844277025143119,12.875933466056505,10.857405366758982
5.699457225856289,-2.173189767711268,12.984507519724096,10.330614790626203
5.677725328179176,-1.5590703577372333,13.087813667630357,9.920187128179196
5.662134624601804,-0.9913837892639672,13.18701553891215,9.605620940472114
5.652220786709164,-0.45927427347866145,13.283071748316871,9.367353494055049
5.647628043974378,0.046122367879478876,13.376745283257423,9.189084089583002
5.648089267653173,0.5313932401659813,13.468636124153253,9.057621803477586
5.653403200054833,1.0011005236726664,13.55921234218803,8.962194111378475
5.66341420529156,1.4581126865573815,13.648834283301815,8.893777725978381
5.677995332157134,1.903896916419721,13.737772060561598,8.84457940954347
5.697034301321331,2.338759458569506,13.826217854657033,8.807671222946905
5.720421895907026,2.7620483211985754,13.914294566886502,8.776756306325247
5.748042379119012,3.1723362924533953,14.002062129949755,8.746039090000247
5.779765742043546,3.567598251612824,14.089522520849757,8.710176793101873
5.815441724559674,3.9453906938419916,14.176624288780776,8.664291450340091
5.854895631498095,4.303035065274273,14.263267203284176,8.604022690144594
5.897925982150837,4.637800851517962,14.349307430185622,8.525601801610383
5.9443039906660164,4.947080136163087,14.434563448201725,8.425928375526256
5.993774792027647,5.228543190419166,14.518822731956988,8.302632911065619
6.046060223931839,5.480264920443684,14.601849061067643,8.154112663956449
6.1008628731362755,5.700814555266895,14.683390187707207,7.97953343449262
6.157871018688945,5.889305148401289,14.763185522052133,7.778796118574989
6.216764070172958,6.0454042532445245,14.840973483237883,7.552472514407455
6.277218112705403,6.169311396107831,14.916498208381958,7.30171900292146
6.338911226666481,6.261710833024516,14.989515398411172,7.028178633318868
6.401528334996726,6.323709122940097,15.05979718474436,6.733881774763265
6.464765426226127,6.356766373254946,15.127136002491993,6.421153319206969
6.528333089958677,6.362628092383747,15.191347535684063,6.092531249639334
6.591959370882514,6.34326207270132,15.252272848180457,5.750698092917256
6.655391991609528,6.300802252007425,15.30977982910963,5.39842406119704
6.718400014129602,6.237499521906205,15.3637640697216,5.038518969162178
6.780775009348664,6.155678206601738,15.414149259413222,4.673789412615185
6.842331791414682,6.05769645889358,15.460887153539373,4.306998078532826
6.902908756003618,5.945908990639099,15.5039571343247,3.94082313872403
6.962367845910009,5.822631160599698,15.54336536571194,3.5778170987940356
7.0205941575160065,5.690104239674586,15.579143536699881,3.220365876027259
7.077495199912752,5.5504624355552075,15.611347195460153,2.870649972961295
7.132999824268304,5.4057028126876965,15.640053695189767,2.5306102111738022
7.187056852395181,5.2576594910118475,15.665359797301505,2.2019205286832833
7.2396334473053,5.107983430751484,15.687379002588338,1.8859698791304955
7.290713281612815,4.958128763215578,15.706238701379643,1.583854447114615
7.340294569244971,4.809346108721802,15.72207724585079,1.2963804049974224
7.388388030332189,4.66268274936573,15.735041049900763,1.024076475730149
7.435014857825847,4.5189890028290485,15.745281814658064,0.7672147879078376
7.480204747854137,4.3789297496939,15.752953962537143,0.5258380046210913
7.523994045351077,4.242999837818361,15.758212342583354,0.2997905009948615
7.566424043729261,4.111542023602925,15.761210247593302,0.08875142527983493
7.60753946396529,3.984766184814031,15.762097761846102,-0.10773226142078984
7.647387125813431,3.862768711924549,15.761020439231894,-0.29021429088769846
7.686014812932677,3.7455512106696855,15.758118296323017,-0.4593202367132473
7.723470325039374,3.6330378891003567,15.753525093955885,-0.6157219915970714
7.759800703930377,3.5250912290784187,15.747367874039915,-0.7601158988126427
7.795051616221161,3.4215257370134586,15.739766715051788,-0.8932045776306257
7.829266873591296,3.322119723457373,15.730834669275481,-1.0156822746486118
7.8624880708258695,3.226625175020688,15.720677846528995,-1.1282234376906801
7.894754322576077,3.1347758587456815,15.709395612152088,-1.231474134740312
7.926102081163534,3.0462938448234294,15.697080870804685,-1.3260459136073481
7.9565650196117685,2.960894655405586,15.683820411668611,-1.4125117053432257
7.986173966165825,2.878291251937825,15.66969529461518,-1.4914034041450905
8.014956878685203,2.798197066696471,15.654781260573728,-1.5632107992544346
8.042938849352167,2.7203282706319665,15.639149152581183,-1.6283815831223967
8.070142132058486,2.6444054526142646,15.622865336749959,-1.6873222099168066
8.096586186584629,2.5701548670661474,15.60599211465079,-1.740399425987225
8.12228773525529,2.4973093891869858,15.588588120390918,-1.7879423371175756
8.147260829147159,2.425609300206834,15.570708697019743,-1.830244915047502
8.171516922149227,2.354803009490087,15.552406247869268,-1.8675688770974315
8.195064952244127,2.2846478055087616,15.533730559098293,-1.9001468972949453
8.217911430299216,2.214910713079427,15.514729090125345,-1.9281861247463987
8.24006053743001,2.1453695189343627,15.49544722887788,-1.9518719946805405
8.261514232619353,2.07581401069718,15.475928508931075,-1.9713723191357697
8.282272372726325,2.0060474547039258,15.456214785739718,-1.98684163725237
8.302332847273364,1.9358883150998887,15.436346369367195,-1.9984257893800386
8.321691730424362,1.8651721899080866,15.416362111473395,-2.006266655022568
8.340343452323443,1.7937539096159585,15.39629944492317,-2.0105069631222094
8.358280991419603,1.7215097114563302,15.376194375291947,-2.011295046565701
8.375496088534167,1.648339370222752,15.35608142482629,-2.0087893746666077
8.391979482236394,1.5741681375110046,15.335993531079623,-2.0031626627556913
8.407721163611503,1.4989483199809488,15.315961904452067,-1.9946053330617273
8.422710646811312,1.4226603182786886,15.29601585112145,-1.9833280924548133
8.436937249994099,1.3453129559874517,15.276182570196902,-1.9695634064335528
8.450390379553973,1.2669429553661566,15.256486936132566,-1.9535656890788418
8.463059809107634,1.1876134642694338,15.236951279241778,-1.9356100962940737
8.474935943750328,1.10741160391956,15.217595178278836,-1.9159899007772572
8.486010059789523,1.0264450841010369,15.198435279271063,-1.895012533364194
8.496274510630533,0.9448380119814078,15.17948515393742,-1.8729944842468655
8.505722890750347,0.8627260927058965,15.160755209094953,-1.8502553546776845
8.514350151677405,0.7802514741246791,15.142252655548177,-1.827111421330204
8.522152666418652,0.6975575168418622,15.123981541334874,-1.8038691111587928
8.52912824158707,0.6147837705535784,15.105942850223286,-1.7808187796609671
8.535276079292606,0.5320614093730082,15.088134662426677,-1.758229141712884
8.540596693386336,0.4495093278302528,15.070552371009548,-1.73634262939861
8.545091786664639,0.36723103379839994,15.053188944715561,-1.7153718573622774
8.548764097002623,0.2853124042349962,15.036035226141939,-1.6954972765802612
8.551617221044973,0.20382030320155953,15.019080253376137,-1.676866004446073
8.553655424076988,0.12280200595561934,15.002311593331676,-1.6595917420837982
8.554883444136545,0.04228533205862604,14.985715675910837,-1.643755634309838
8.55530629745713,-0.037720634336261966,14.96927811956774,-1.629407895142034
8.554929091113769,-0.11722436862356102,14.95298404061632,-1.61657001046508
8.553756847427533,-0.19625040329829352,14.93681834051167,-1.605237335518461
8.55179434339455,-0.27483761625667896,14.920765967156484,-1.5953819234062174
8.549045967231983,-0.3530374099191491,14.904812147922422,-1.5869554469358738
8.54551559313279,-0.43091186139656507,14.888942593453065,-1.5798921055024406
8.541206474518825,-0.5085319038291973,14.87314367239804,-1.5741114381341277
8.536121155480533,-0.5859755803297327,14.857402558016698,-1.5695209909479875
8.530261399677237,-0.6633263956204133,14.841707348107219,-1.5660188108174868
8.523628135721033,-0.7406717768939978,14.826047159999044,-1.5634957564866878
8.516221417952092,-0.818101644679776,14.810412202434177,-1.5618376336837156
8.508040401505294,-0.8957070863380584,14.79479382609734,-1.5609271723438036
8.499083330641914,-0.9735791188817071,14.779184554373902,-1.5606458723853844
8.489347539453098,-1.0518075237242088,14.763578095650049,-1.560875750185136
8.478829464215856,-1.130479733283537,14.747969338148197,-1.5615010215366085
8.46752466688302,-1.2096797477797927,14.73235432793283,-1.5624097589402266
8.455427869405224,-1.2894870597702603,14.716730230343428,-1.5634955619406847
8.44253299880752,-1.3699755637632314,14.701095274724022,-1.5646592791607559
8.428833243169889,-1.4512124285174857,14.685448681932414,-1.5658108198126333
8.414321118884715,-1.533256910324268,14.669790573734288,-1.5668710908076764
8.398988549781471,-1.6161590867199305,14.65412186282621,-1.5677740930164208
8.382826958914272,-1.699958491806954,14.638444121896047,-1.5684692065126074
8.365827373996202,-1.784682636865112,14.622759429830921,-1.5689236894050271
8.347980547627552,-1.8703454034869784,14.60707019293687,-1.569125407638431
8.329277093592681,-1.9569453014187654,14.591378938860485,-1.56908580334193
8.309707640578495,-2.0444635900336996,14.575688080827065,-1.568843096249341
8.289263004678158,-2.1328622713493797,14.559999649864572,-1.5684656957008716
8.267934381964665,-2.2220819741507487,14.544314992907564,-1.5680557790848215
8.245713562223157,-2.3120397634435172,14.528634435116716,-1.567752965767459
8.222593164588723,-2.402626927303165,14.512956905459042,-1.5677379833808434
