th1 (rad),w1 (rad/s),th2 (rad),w2 (rad/s),a1 (rad/s^2),a2 (rad/s^2)
5.870703342606981,-1.7454924696237413,3.3796033980687983,0.6923574043792831,7.956244030604969,10.4870518492411
5.853248417910743,-1.6659300293176915,3.3865269721125912,0.7972279228716941,7.898481707958276,10.277475467431001
5.836589117617566,-1.5869452122381087,3.3944992513413084,0.9000026775460042,7.819326488073692,10.056639079561968
5.820719665495186,-1.5087519473573718,3.4034992781167683,1.000569068341624,7.720847509687576,9.828151342211125
5.805632146021612,-1.431543472260496,3.4135049688001846,1.0988505817637353,7.6050321256478925,9.595404492832031
5.7913167112990065,-1.3554931510040171,3.424493474617822,1.1948046266920556,7.473751895867758,9.361534898540812
5.777761779788967,-1.2807556320453395,3.4364415208847423,1.2884199756774637,7.328736386072487,9.129396489327975
5.764954223468513,-1.2074682681846145,3.449325720641517,1.3797139405707435,7.17155444871427,8.901546002144142
5.752879540786667,-1.1357527236974718,3.4631228600472244,1.468729400592185,7.003602377275743,8.680238617418805
5.741522013549693,-1.0657166999247143,3.477810154053146,1.555531786766373,6.82609813216155,8.467432377371704
5.730864846550445,-0.9974557186030988,3.49336547192081,1.64020611054009,6.6400807281826015,8.264799715678848
5.720890289364414,-0.9310549113212727,3.509767533026211,1.7228541076968784,6.446413837769513,8.073744474465666
5.711579740251201,-0.8665907729435776,3.5269960741031796,1.8035915524415351,6.245792685368912,7.895422909157049
5.702913832521765,-0.8041328460898884,3.545031989627595,1.8825457815331057,6.03875337131725,7.730767357590716
5.694872504060866,-0.7437453123767159,3.563857447442926,1.9598534551090128,5.825683853221666,7.580511453465383
5.687435050937099,-0.6854884738444993,3.583455981994016,2.0356585696436666,5.606835916882965,7.445215976521904
5.680580166198654,-0.6294201146756696,3.603812567690453,2.110110729408886,5.3823375769317225,7.325294638449005
5.674285965051897,-0.5755967389063523,3.624913674984542,2.183363675793376,5.152205452044253,7.221039294472015
5.668529997662834,-0.5240746843859098,3.646747311742476,2.255574068738096,4.916356755678764,7.1326442399526995
5.663289250818974,-0.4749111168291221,3.6693030524298567,2.3269005111376226,4.674620627596074,7.060229396305663
5.658540139650683,-0.4281649105531614,3.692572057541233,2.3975028051006793,4.426748602530208,7.003862310720067
5.654258490545152,-0.38389742452785935,3.71654708559224,2.46754142820788,4.172424070031562,6.963578990825826
5.650419516299873,-0.34217318382754375,3.7412224998743184,2.5371772181161383,3.9112706243939597,6.939403670856369
5.646997784461598,-0.30306047758360416,3.76659427205548,2.606571254824702,3.642859236973561,6.9313676628550684
5.643967179685761,-0.26663188521386855,3.792659984603727,2.6758849314532527,3.3667142067725897,6.93952748799612
5.641300860833622,-0.23296474314614266,3.8194188339182595,2.745280206333214,3.082317860799163,6.9639825119160035
5.638971213402161,-0.20214156453815102,3.8468716359815915,2.814920031452374,2.789113985510646,7.0048923264456455
5.636949797756779,-0.17425042468304455,3.875020836296115,2.8849689547168302,2.486509976878866,7.06249413005733
5.635207293509949,-0.14938532491425588,3.9038705258432835,2.9555938960174037,2.173877701842809,7.137120361650524
5.633713440260807,-0.1276465478958278,3.9334264648034574,3.026965099633909,1.850553071168582,7.229216836894405
5.632436974781848,-0.10914101718414199,3.9636961157997965,3.099257268002853,1.5158343368197236,7.339361621706353
5.631345564610007,-0.09398267381594475,3.994688688479825,3.1726508842199164,1.1689791508880918,7.468284850102398
5.630405737871848,-0.08229288230706383,4.026415197322025,3.24733373272094,0.8092004649078038,7.616889647349842
5.629582809048777,-0.07420087765798579,4.058888534649234,3.3235026291944387,0.4356614178927726,7.786274243753369
5.628840800272197,-0.06984426347905806,4.092123560941178,3.4013653716319725,0.04746947312768327,7.977755243139328
5.628142357637406,-0.06936956874778123,4.126137214657498,3.4811429240633656,-0.3563297611481103,8.192891817716617
5.627448661949929,-0.07293286635926234,4.160948643898132,3.563071842240532,-0.7767583219329707,8.433510298320012
5.626719333286336,-0.08070044957859204,4.196579362320537,3.647406945223732,-1.2149101750907367,8.701728156104707
5.62591232879055,-0.09284955132949942,4.233053431772774,3.734424226784779,-1.6719522499893016,8.999975636942265
5.624983833277255,-0.10956907382939243,4.2703976740406215,3.824423983154202,-2.1491195388284754,9.331012173329643
5.623888142538961,-0.1310602692176772,4.308641913872163,3.9177341048874985,-2.6477001519556,9.697932947743508
5.622577539846784,-0.1575372707372332,4.347819254921038,4.014713434364934,-3.169004079928819,10.104158292678393
5.6210021671394115,-0.1892273115365214,4.387966389264688,4.115755017291717,-3.714306195595979,10.553394496746838
5.619109894024047,-0.22637037349248118,4.429123939437605,4.221288962259186,-4.284749201562959,11.049548307907285
5.616846190289122,-0.2692178655081108,4.4713368290601965,4.331784445338259,-4.88118500674146,11.59656789247602
5.6141540116340405,-0.3180297155755254,4.514654673513579,4.447750124263019,-5.503922273943226,12.198168633546121
5.610973714478285,-0.37306893831495763,4.5591321747562095,4.56973181059848,-6.152332058082665,12.85738070065085
5.607243025095135,-0.4345922588957843,4.604829492862194,4.698305617604988,-6.824240529724404,13.575823837765583
5.602897102506177,-0.5028346641930284,4.651812549038244,4.834063855982643,-7.515005476670878,14.352569840030055
5.597868755864247,-0.5779847189597371,4.700153187598071,4.977589554382944,-8.216129920146454,15.182391822235942
5.59208890867465,-0.6601460181612017,4.7499290831419,5.129413472605304,-8.913213093359657,16.053122427501265
5.585487448493038,-0.7492781490947982,4.801223217867953,5.289944696880316,-9.582986336802115,16.941762868011946
5.57799466700209,-0.8451080124628193,4.854122664836757,5.459362325560436,-10.18916072704395,17.808942068321365
5.5695435868774625,-0.9469996197332589,4.908716288092361,5.6374517462436495,-10.676901992932512,18.59142354277629
5.56007359068013,-1.053768639662584,4.965090805554797,5.8233659816714125,-10.966110187012646,19.192818828789587
5.549535904283504,-1.1634297415327106,5.023324465371511,6.015294169959309,-10.944611282623303,19.47389467669324
5.537901606868177,-1.2728758543589436,5.083477407071104,6.210033116726241,-10.464273358237794,19.246425073515784
5.525172848324587,-1.3775185879413214,5.145577738238367,6.402497367461399,-9.346180586591334,18.27879159620188
5.511397662445174,-1.4709803938072348,5.20960271191298,6.585285283423418,-7.404475260997195,16.326344050731215
5.4966878585071015,-1.5450251464172067,5.275455564747214,6.74854872393073,-4.498607509730502,13.199870905138598
5.48123760704293,-1.5900112215145117,5.3429410519865215,6.880547432982116,-0.6130728761811396,8.8712193550088
5.465337494827785,-1.596141950276323,5.4117465263163425,6.969259626532204,4.063277837015776,3.5785302442112727
5.449376075325022,-1.5555091719061653,5.481439122581665,7.005044928974317,9.11659767211785,-2.147477267133349
5.43382098360596,-1.4643431951849868,5.551489571871408,6.983570156302983,13.99702924006502,-7.604278816825845
5.41917755165411,-1.3243729027843365,5.621325273434438,6.9075273681347245,18.19576434309463,-12.154470396136785
5.405933822626267,-1.1424152593533903,5.690400547115786,6.785982664173357,21.40629977937195,-15.437292055899322
5.394509670032733,-0.9283522615596708,5.758260373757519,6.631609743614364,23.573617238383136,-17.42654670436327
5.385226147417136,-0.6926160891758394,5.824576471193662,6.457344276570732,24.830177847417417,-18.337588449108527
5.378299986525377,-0.4443143107016652,5.889149913959369,6.273968392079646,25.390471724374382,-18.482978586313752
5.373856843418361,-0.1904095934579214,5.951889597880165,6.089138606216508,25.46835862020424,-18.162924424196277
5.371952747483782,0.06427399274412099,6.0127809839423305,5.907509361974546,25.236658340660366,-17.61441028989961
5.372595487411223,0.31664057615072466,6.071856077562076,5.73136525907555,24.818542749930497,-17.00297329284617
5.37576189317273,0.5648260036500297,6.129169730152832,5.561335526147088,24.29438821797521,-16.434260361492836
5.381410153209231,0.8077698858297817,6.184783085414303,5.39699292253216,23.712932858645726,-15.970303556227568
5.3894878520675285,1.044899214416239,6.238753014639625,5.237289886969885,23.101564372272033,-15.643828473476855
5.399936844211691,1.2759148581389594,6.291125913509323,5.080851602235116,22.474195329482242,-15.468828201642497
5.412695992793081,1.500656811433782,6.341934429531674,4.926163320218691,21.836771465976728,-15.447700462332518
5.427702560907418,1.7190245260935493,6.3911960627338615,4.771686315595367,21.190938127022342,-15.575809867329843
5.444892806168354,1.9309339073637728,6.438912925889815,4.615928216922068,20.53641033674272,-15.844304476463009
5.464202145241991,2.1362980107312,6.4850722080590355,4.457485172157438,19.872474258188607,-16.24181927631269
5.485565125349303,2.335022753313086,6.5296470597806096,4.295066979394311,19.198918922383097,-16.755502986168473
5.5089153528824335,2.527011942536917,6.572597729574553,4.127511949532626,18.516594902890525,-17.371653268144733
5.5341854723078026,2.712177891565822,6.613872849069879,3.953795416851179,17.827725153120753,-18.076139965720998
5.561307251223461,2.8904551430970296,6.6534108032383905,3.773034017193969,17.13604655998528,-18.854725786747856
5.590211802654431,3.0618156086968824,6.69114114341033,3.58448675932649,16.44683169515535,-19.693347869597037
5.6208299587414,3.2262839256484357,6.726986011003595,3.3875532806305197,15.766822843188761,-20.57839348601962
5.653092797997884,3.3839521540803235,6.7608615438099,3.1817693457703236,15.104100338307948,-21.496982980100206
5.686932319538687,3.534993157463403,6.792679237267603,2.9667995159693215,14.467901520531674,-22.43725918360792
5.722282251113321,3.6796721726687194,6.822347232427296,2.7424269241332424,13.868403082813696,-23.388672570100827
5.759078972840008,3.8183562034968563,6.849771501668628,2.508540198432234,13.316476623220371,-24.34224364185121
5.797262534874977,3.95152096972906,6.87485690365295,2.265117762013722,12.823423517475256,-25.290777100391452
5.8367777445722675,4.079755204903813,6.897508081273087,2.0122099910098075,12.400689518452586,-26.228994754882933
5.8775752966213055,4.203762100088339,6.917630181183185,1.749920043460978,12.059550327860217,-27.1535439378473
5.919612917622189,4.324357603366941,6.935129381617795,1.478384604082505,11.81074488105909,-28.06282263412405
5.962856493655858,4.442465052177532,6.94991322765862,1.1977563777412645,11.664010541441156,-28.95653745716262
6.007281144177633,4.559105157591944,6.961890791436033,0.9081910031696383,11.627439858077889,-29.83486998983349
6.052872195753553,4.6753795561727225,6.970972701467729,0.6098423032713034,11.706526316040458,-30.697062366729583
6.09962599131528,4.792444819333127,6.977071124500442,0.30287167960400757,11.902689070583943,-31.539133400745936
6.147550439508612,4.911471710038967,6.980099841296482,-0.012519654403451819,12.210955896883961,-32.35029075539913
6.196665156609002,5.033581269007806,6.979974644752448,-0.3360225619574431,12.616336248941424,-33.107408951637886
6.24700096929908,5.159744631497221,6.976614419132874,-0.6670966514738219,13.08825007598811,-33.76672440817946
6.298598415614052,5.290627132257102,6.969943452618136,-1.0047638955556166,13.572271920798139,-34.25177248689327
6.3515046869366225,5.426349851465083,6.9598958136625795,-1.3472816204245492,13.978632807248468,-34.436886247137465
6.405768185451273,5.566136179537568,6.946422997458334,-1.6916504828959238,14.167934341882356,-34.12706007731389
6.461429547246649,5.707815522956392,6.929506492629375,-2.0329210836690628,13.937411385620331,-33.03912398645058
6.518507702476213,5.847189636812596,6.909177281792684,-2.3633123235335685,13.017252518689993,-30.797963134994447
6.576979598844339,5.977362161999496,6.885544158557348,-2.671291954883513,11.09620249345685,-26.9752377233973
6.6367532204643345,6.088324186934065,6.858831239008513,-2.9410443321174857,7.9031118703985,-21.208339755573448
6.6976364623336755,6.16735530563805,6.829420795687338,-3.15312772967322,3.3572470314261698,-13.41707171832108
6.759310015390056,6.200927775952311,6.797889518390606,-3.287298446856431,-2.2605720597259644,-4.048500594474959
6.821319293149578,6.178322055355052,6.765016533922041,-3.3277834528011803,-8.253199310786737,5.8468097645977775
6.883102513703129,6.095790062247184,6.731738699394029,-3.2693153551552023,-13.70341426132967,14.899865398803422
6.944060414325601,5.958755919633887,6.699045545842477,-3.120316701167168,-17.85663538601622,21.977253803452967
7.0036479735219395,5.780189565773725,6.667842378830805,-2.9005441631326385,-20.409723490015267,26.602164795670028
7.061449869179676,5.576092330873572,6.638836937199478,-2.6345225151759384,-21.507278550831284,28.955259194277065
7.117210792488412,5.361019545365259,6.612491712047719,-2.3449699232331676,-21.531712088769925,29.575556032098977
7.170820987942064,5.14570242447756,6.589042012815387,-2.0492143629121777,-20.89148781136408,29.053768375243436
7.222278012186839,4.936787546363919,6.568549869186265,-1.7586766791597435,-19.910610622415426,27.868466443258168
7.271645887650479,4.737681440139765,6.550963102394667,-1.479992014727162,-18.80620682093448,26.348990561826565
7.3190227020518765,4.54961937193042,6.536163182247396,-1.2165021091088963,-17.70731883275543,24.699112382832382
7.364518895771181,4.372546183602865,6.523998161156307,-0.9695109852805726,-16.682438531031565,23.03480901491874
7.4082443576072095,4.20572179829255,6.514303051303501,-0.7391628951313851,-15.762517884066657,21.41661374771348
7.450301575590135,4.048096619451884,6.506911422352187,-0.5249967576542502,-14.956847509957944,19.872313357362785
7.490782541784654,3.898528144352304,6.501661454775644,-0.3262736240806224,-14.263006669857518,18.411395040781823
7.529767823228177,3.755898077653729,6.498398718534838,-0.14215967367280416,-13.672748116712208,17.033737298991884
7.567326804004714,3.6191705964866068,6.49697712179811,0.028177699317114696,-13.175337243509116,15.734638971706007
7.60351850996958,3.4874172240515158,6.497258898791281,0.18552408903417478,-12.759375791901476,14.507630592726454
7.638392682210095,3.359823466132501,6.499114139681622,0.33060039496143934,-12.413752374508059,13.345981475205994
7.67199091687142,3.2356859423874202,6.5024201436312365,0.46406020971349926,-12.12810254677062,12.243455310760222
7.704347776295294,3.114404916919714,6.507060745728372,0.5864947628211015,-11.893000384157004,11.194640887127065
7.735491825464491,2.995474913078144,6.512925693356583,0.6984411716923721,-11.70000779870946,10.19504825271315
7.7654465745952725,2.8784748350910494,6.519910105073507,0.8003916542195035,-11.54165211674865,9.241080256136206
7.7942313229461835,2.7630583139235627,6.527914021615702,0.8928024567808656,-11.411370486365016,8.329942470177073
7.821861906085419,2.6489446090599125,6.53684204618351,0.9761018814826363,-11.303441578086641,7.459527276379752
7.848351352176018,2.535910193279046,6.546603064998337,1.0506971542464338,-11.212914923804115,6.628292115776572
7.873710454108808,2.423781044041005,6.557110036540801,1.1169800754041996,-11.135542695078483,5.835142784083988
7.8979482645492185,2.31242561709022,6.568279837294844,1.1753315032450395,-11.067715779875604,5.07932736674289
7.921072520720121,2.201748459291464,6.580033152327294,1.2261247769124684,-11.006404539910118,4.360343351052568
7.943090005313035,2.0916844138923625,6.592294400096419,1.269728210422994,-10.949103965033506,3.6778586848037507
7.964006849451959,1.9821933742420275,6.604991682200649,1.3065067972710316,-10.893782710748841,3.031646534617137
7.9838287831943795,1.8732555471345391,6.618056750173359,1.336823262617203,-10.838835495233607,2.4215329224620454
8.002561338665725,1.764867192182203,6.6314249827995315,1.3610385918418235,-10.783038421855148,1.8473561069246063
8.020210010587547,1.6570368079636515,6.6450353687179495,1.3795121529110697,-10.725506915113462,1.3089364235534446
8.036780378667183,1.5497817388125168,6.65883049024706,1.3926015171466042,-10.665656077010704,0.8060552459616125
8.052278196055308,1.4431251780424097,6.672756505418526,1.4006620696062204,-10.603163370251382,0.33844174067962246
8.066709447835732,1.337093544339896,6.686763126114588,1.4040464870130167,-10.537933608261254,-0.09423385781236202
8.080080383279132,1.2317142082572834,6.700803590984719,1.4031041484348932,-10.470066279551508,-0.4923616440016149
8.092397525361704,1.1270135454617682,6.714834632469067,1.398180531994877,-10.399825258344315,-0.8563892025963561
8.103667660816322,1.0230152928783252,6.728816437789016,1.3896166399689134,-10.32761095893776,-1.1868155156099884
8.113897813745105,0.9197391832889475,6.742712604188705,1.3777484848128134,-10.25393498275209,-1.4841824802581325
8.123095205577995,0.8171998334614267,6.756490089036833,1.3629066600102322,-10.179397288909557,-1.7490647849294803
8.131267203912609,0.7154058605723311,6.770119155636936,1.3454160121609373,-10.104665895589935,-1.9820587750901635
8.138421262518332,0.6143592016164318,6.783573315758545,1.3255954244100356,-10.030459093635647,-2.1837708306765076
8.144564854534496,0.5140546106800753,6.796829270002646,1.3037577161032705,-9.95753012860244,-2.3548056734205254
8.149705400641297,0.4144793093940509,6.809866847163678,1.2802096593690653,-9.88665428461215,-2.495754928127124
8.153850193735238,0.3156127665479294,6.822668943757369,1.255252110087794,-9.81861828427712,-2.6071861771283844
8.157006321400717,0.21742658370515822,6.835221464858248,1.2291802483165102,-9.754211904387393,-2.689632672463272
8.159180587237769,0.11988446466128429,6.847513267341413,1.2022839215918775,-9.694221697270793,-2.743583805877842
8.160379431884381,0.02294224768857636,6.859536106557332,1.174848083533099,-9.63942670265781,-2.769476382338152
8.160608854361268,-0.07345201933800173,6.871284587392664,1.1471533197097175,-9.590596034104195,-2.767686698041442
8.159874334167888,-0.16935797967904367,6.882756120589761,1.119476452729303,-9.548488226890683,-2.738523388473173
8.158180754371099,-0.2648428619479505,6.893950885117054,1.0920912188445713,-9.513852239962315,-2.6822209855059223
8.155532325751619,-0.35998138434757365,6.9048717973055,1.065269008989512,-9.487430011817379,-2.5989341046572423
8.151932511908143,-0.4548556844657474,6.915524487395395,1.0392796679429397,-9.46996047800821,-2.488732174528848
8.147383955063486,-0.5495552892458295,6.925917284074824,1.0143923461976512,-9.462184964482354,-2.3515946207531395
8.141888402171027,-0.6441771388906531,6.936061207536801,0.9908763999901198,-9.464853874375088,-2.187406427838007
8.13544663078212,-0.738825677634404,6.945969971536702,0.9690023357117397,-9.478734583468208,-1.9959540265520075
8.128058374005775,-0.8336130234690861,6.955659994893819,0.9490427954462196,-9.50462044788103,-1.7769214958685344
8.119722243771085,-0.9286592279478963,6.965150422848281,0.9312735804875343,-9.543340801879742,-1.5298871330631114
8.110435651491606,-1.0240926359666938,6.9744631586531565,0.9159747091569032,-9.595771777287553,-1.2543205424356287
8.100194725131939,-1.1200503537395692,6.983622905744726,0.9034315037325469,-9.662847699349111,-0.9495805357171625
8.088994221594543,-1.2166788307330603,6.992657220782052,0.8939356983753752,-9.745572693458033,-0.614914345058749
8.076827433287212,-1.3141345576676406,7.001596577765805,0.8877865549247878,-9.845031953366687,-0.24945895087770684
8.063686087710536,-1.4125848772013074,7.010474443315053,0.8852919654160106,-9.962401846252856,0.14775423747398214
8.049560238938524,-1.512208895663836,7.0193273629692134,0.8867695077907505,-10.09895762287498,0.5777894817294169
8.034438149981884,-1.6131984718925858,7.028195058047121,0.8925474026080447,-10.25607690394903,1.0417888238943787
8.018306165262958,-1.715759240932076,7.037120532073201,0.9029652908469884,-10.435236243876355,1.5409421326102561
