th1 (rad),w1 (rad/s),th2 (rad),w2 (rad/s)
1.1852034343089535,-0.015626958784372497,3.637582123906982,-2.146341899580137
1.1850471647211098,-0.098452646765794,3.6161187049111807,-2.1636254477835877
1.1840626382534518,-0.18065397918550352,3.594482450433345,-2.1812212360996712
1.1822560984615968,-0.26226293822295177,3.5726702380723485,-2.199306745577361
1.1796334690793673,-0.3433052664428789,3.550677170616575,-2.2180595027516676
1.1762004164149384,-0.42379959966933695,3.5284965755890583,-2.237655977011621
1.171962420418245,-0.5037567645396882,3.506120015818942,-2.2582706901057175
1.1669248527728482,-0.5831792017887812,3.4835373089178847,-2.2800754793603675
1.1610930607549603,-0.6620604823698393,3.460736554124281,-2.303238865883191
1.154472455931262,-0.7403848890399602,3.437704165465449,-2.3279254876986912
1.1470686070408624,-0.8181270409764967,3.414424910588462,-2.35429556537819
1.1388873366310974,-0.8952515433618754,3.39088195493468,-2.382504374327543
1.1299348211974787,-0.9717126477331035,3.367056911191405,-2.4127017035861824
1.1202176947201476,-1.047453912313395,3.342929894155543,-2.4450312858977123
1.1097431555970136,-1.1224078546104763,3.318479581296566,-2.479630188074318
1.0985190770509088,-1.1964955913627693,3.2936832794158226,-2.516628154433229
1.0865541211372811,-1.269626463519189,3.2685169978714903,-2.5561468994655563
1.0738578565020893,-1.3416976464204817,3.2429555288768346,-2.5982993490281876
1.0604408800378844,-1.4125937477686972,3.2169725353865526,-2.6431888323383843
1.0463149425601974,-1.4821863983728083,3.1905406470631688,-2.690908229995705
1.0314930785764693,-1.550333843075009,3.163631564763212,-2.741539086240748
1.0159897401457192,-1.616880541710835,3.1362161739008045,-2.7951506967544613
0.9998209347286109,-1.68165679243712,3.10826466693326,-2.8517991865595285
0.9830043668042396,-1.7444783922564147,3.0797466750676645,-2.9115265960437364
0.9655595828816755,-1.8051463520356084,3.0506314091072273,-2.9743599968024648
0.9475081193613194,-1.8634466856979195,3.020887809139203,-3.04031066289002
0.9288736525043402,-1.9191502954735558,2.9904847025103027,-3.1093733271495716
0.9096821495496046,-1.9720129770100303,2.959390969238807,-3.181525556503088
0.8899620197795043,-2.021775569623748,2.927575713673776,-3.25672728433926
0.8697442640832668,-2.0681642778450096,2.8950084408303836,-3.3349205423184807
0.8490626213048167,-2.110891190463962,2.8616592354071986,-3.416029437863884
0.8279537094001771,-2.149655022292479,2.82749894102856,-3.4999604271352034
0.8064571591772524,-2.184142101561172,2.7924993367572077,-3.586602936164624
0.7846157381616407,-2.2140276220024595,2.7566333073955613,-3.675830384821581
0.7624754619416161,-2.2389771729594967,2.7198750035473456,-3.7675016691032615
0.7400856902120211,-2.258648553053033,2.682199986856313,-3.8614631566590494
0.7174992046814908,-2.272693862819438,2.6435853552897224,-3.957551248217838
0.6947722660532963,-2.2807618591552252,2.604009842807544,-4.055595553524427
0.6719646474617441,-2.282500539315918,2.5634538872723,-4.155422724431968
0.649139642068585,-2.277559904698912,2.52189966002798,-4.256860980013707
0.6263640430215959,-2.2655948349296966,2.479331050227843,-4.359745349215724
0.6037080946722989,-2.2462679812902406,2.4357335967356857,-4.463923646183246
0.5812454148593965,-2.219252565894826,2.3910943602738532,-4.569263182752188
0.5590528892004483,-2.184234950040181,2.3454017284463315,-4.675658212815017
0.5372105397000465,-2.1409168128067226,2.298645146318181,-4.783038095774805
0.5158013715719793,-2.0890167603572802,2.250814765360433,-4.8913761628133265
0.49491120396840643,-2.0282711686132955,2.2019010037322997,-5.00069927215597
0.4746284922822735,-1.9584340482150338,2.15189401101074,-5.111098049942827
0.45504415180012314,-1.8792757119590566,2.1007830305113115,-5.222737833616064
0.4362513946805326,-1.7905800222812693,2.048555652175151,-5.335870366378546
0.4183455944577199,-1.6921400009751255,1.9951969485113656,-5.4508463348229625
0.4014241944479687,-1.5837515969283589,1.940688485163136,-5.56812889615561
0.3855866784786851,-1.4652054334397864,1.88500719620158,-5.688308402490024
0.37093462414428724,-1.336276401084661,1.8281241121766798,-5.812118588283215
0.3575718601334406,-1.1967110380043173,1.7700029262938477,-5.940454524905172
0.34560474975339744,-1.0462127719507885,1.710598381044796,-6.074392629144042
0.33514262203388956,-0.8844253349553164,1.6498544547533556,-6.215212876357413
0.32629836868433637,-0.7109150906841082,1.5877023259897813,-6.364422996487231
0.3191892177774953,-0.5251537994723793,1.524058096024909,-6.523783606155875
0.31393767978277154,-0.3265047846243908,1.4588202599633502,-6.695331555329765
0.3106726319365276,-0.11421809656172285,1.3918669444100527,-6.8813955143793955
0.30953045097091036,0.11255492906663891,1.3230529892662588,-7.084591671938368
0.31065600026157675,0.35470864075916403,1.252207072546875,-7.307775986367284
0.3142030866691684,0.6130570042720367,1.179129312683202,-7.553908645224677
0.3203336567118888,0.8880730618872357,1.1035902262309554,-7.82574969775444
0.32921438733076114,1.1793883161864454,1.025332729253411,-8.125243527880288
0.3410082704926256,1.4848819446428234,0.944080293974608,-8.452358447326478
0.35585708993905385,1.799121742376578,0.8595567095013432,-8.80304681648699
0.37384830736281965,2.110934183212584,0.7715262413364733,-9.165996484562768
0.39495764919494547,2.4002437864901,0.6798662764908456,-9.518315017656237
0.41896008705984644,2.6355520553114684,0.5846831263142833,-9.821941817276906
0.44531560761296113,2.7757940990347096,0.48646370814151424,-10.025810825174103
0.47307354860330825,2.781651117046943,0.3862055998897732,-10.080647736513491
0.5008900597737777,2.635373375441413,0.2853991225246383,-9.965122796216841
0.5272437935281917,2.354215513172972,0.18574789456246987,-9.703207947595397
0.5507859486599215,1.9816358642845224,0.08871581508651591,-9.351680704384027
0.5706023073027667,1.5642411519165065,-0.004800991957324363,-8.969234163176033
0.5862447188219317,1.1358834615203355,-0.0944933335890847,-8.596068067622411
0.5976035534371351,0.7154383804073565,-0.18045401426530883,-8.25196979469309
0.6047579372412086,0.3112431701444461,-0.26297371221223975,-7.94288898384297
0.6078703689426531,-0.07414831286974816,-0.34240260205066947,-7.6674963702282835
0.6071288858139556,-0.44083768774910387,-0.4190775657529523,-7.421332442126738
0.6027205089364646,-0.7898947629982804,-0.4932908901742197,-7.198957157652905
0.5948215613064818,-1.122547982918912,-0.5652804617507488,-6.994930821725813
0.5835960814772927,-1.439837761720075,-0.6352297699680068,-6.804206910094462
0.5691977038600919,-1.7424971604290262,-0.7032718390689514,-6.622255720598114
0.5517727322558017,-2.030939339276572,-0.7694943962749325,-6.445076363639183
0.531463338863036,-2.305293038160007,-0.8339451599113243,-6.26916998567544
0.5084104084814359,-2.5654581755169,-0.8966368597680787,-6.091505707398157
0.48275582672626693,-2.8111684203180136,-0.9575519168420603,-5.909491203820661
0.4546441425230868,-3.0420544297411385,-1.016646828880267,-5.720950874829195
0.42422359822567546,-3.2577044904811703,-1.073856337628559,-5.524110608172191
0.39164655332086373,-3.4577205953382806,-1.129097443710281,-5.317586586148987
0.3570693473674809,-3.6417685262431436,-1.1822733095717708,-5.100375196602997
0.3206516621050495,-3.809620782426392,-1.2332770615378008,-4.871841298223715
0.28255545428078555,-3.961191412221091,-1.281995474520038,-4.631702579311783
0.24294354015857464,-4.096562070645171,-1.3283125003131557,-4.380008390888436
0.20197791945212293,-4.215998954487477,-1.37211258422204,-4.117112139826403
0.15981792990724816,-4.319960648118826,-1.413283705620304,-3.8436370315707675
0.1166183234260599,-4.409097315938073,-1.4517200759360116,-3.5604356044656345
0.07252735026667917,-4.484242065506932,-1.487324431980668,-3.2685440580874956
0.027684929611609843,-4.546395645392043,-1.520009872561543,-2.9691328152640777
-0.017779026842310593,-4.596705905996024,-1.5497012007141837,-2.6634550506966406
-0.06374608590227084,-4.636443620755119,-1.5763357512211502,-2.352795058207588
-0.11011052210982203,-4.6669763282607,-1.599863701803226,-2.038418315111541
-0.15678028539242903,-4.6897418109550255,-1.6202478849543414,-1.7215249498555396
-0.20367770350197928,-4.70622267865609,-1.6374631344528967,-1.4032080542687733
-0.2507399302885402,-4.717923286988596,-1.6514952149955844,-1.0844179429846934
-0.29791916315842615,-4.726349906827576,-1.6623393944254312,-0.765933099116763
-0.3451826622267019,-4.732994685093285,-1.6699987254165989,-0.44833821546387953
-0.39251260907763474,-4.739323506761471,-1.6744821075712377,-0.13200951103639286
-0.43990584414524947,-4.74676737524211,-1.6758022026816017,0.18289254977014846
-0.4873735178976706,-4.756716341268608,-1.6739732771839002,0.49642279001677586
-0.5349406813103567,-4.770514259572776,-1.6690090492837324,0.8088421470167083
-0.5826458239060844,-4.789451613571829,-1.6609206278135653,1.1205976489461997
-0.6305403400418027,-4.814752119495531,-1.6497146513241032,1.432287370758686
-0.6786878612367581,-4.8475464989244115,-1.6353917776165163,1.7446029374788443
-0.7271633262260022,-4.88882327303825,-1.6179457482417279,2.0582371005962243
-0.7760515589563847,-4.939341194045991,-1.5973633772357656,2.3737364540060826
-0.8254449708968445,-4.9994806674677985,-1.5736260126957047,2.6912690835760413
-0.8754397775715226,-5.069002819422533,-1.5467133218599443,3.010264742057676
-0.9261298057657479,-5.146678116939239,-1.5166106744393675,3.328875832606727
-0.9775965869351403,-5.22975193532963,-1.4833219161133002,3.643215557142603
-1.0298941062884366,-5.313256128535295,-1.4468897605418742,3.946388669306031
-1.0830266675737896,-5.3892961914840045,-1.407425873848814,4.227500162171447
-1.1369196294886297,-5.446686848475382,-1.3651508722270995,4.471168864435994
-1.1913864979733835,-5.471630590956338,-1.3204391835827396,4.65852255292546
-1.246102803882947,-5.4502176248414775,-1.273853958053485,4.770761996156865
-1.3006049801313617,-5.372748176577209,-1.2261463380919162,4.795275853594302
-1.3543324618971337,-5.238065925248443,-1.1781935795559733,4.731730072559375
-1.4067131211496182,-5.054841786027892,-1.1308762788303794,4.593806347353078
-1.457261539009897,-4.838411470705132,-1.0849382153568488,4.404636733782979
-1.5056456537169485,-4.6053357814755715,-1.040891848019019,4.189027359415392
-1.5516990115317042,-4.369159371279628,-0.9990015744248651,3.9674017030556437
-1.5953906052445004,-4.138874686161017,-0.9593275573943087,3.753597722387041
-1.6367793521061105,-3.9193823128502583,-0.9217915801704384,3.5555125529585667
-1.675973175234613,-3.7126810006185016,-0.8862364546408528,3.376795702947032
-1.713099985240798,-3.518999456627149,-0.8524684976113824,3.21846843533137
-1.7482899798070695,-3.3376124801144416,-0.8202838132580688,3.080099165943862
-1.7816661046082138,-3.1673519909078145,-0.7894828215986301,2.9605462465584207
-1.813339624517292,-3.0068989749610058,-0.7598773591330459,2.858388225867819
-1.843408614266902,-2.854937693456674,-0.7312934768743677,2.7721562595028435
-1.8719579912014688,-2.710229623453604,-0.7035719142793393,2.7004501423727043
-1.8990602874360047,-2.5716430634778917,-0.6765674128556123,2.6419891872298047
-1.9247767180707838,-2.438159465458568,-0.6501475209833142,2.595628164686418
-1.9491583127253695,-2.3088683488176467,-0.62419123933645,2.560355449689284
-1.972246996213546,-2.1829572638979102,-0.5985876848395572,2.5352828253780975
-1.994076568852525,-2.059700218574525,-0.5732348565857762,2.519632005217229
-2.01467357103827,-1.9384462903068493,-0.5480385365336039,2.5127204799271405
-2.0340580339413386,-1.8186092275861196,-0.5229113317343325,2.5139479465846533
-2.0522441262171998,-1.6996583583903058,-0.4977718522684859,2.5227838497070265
-2.069240709801103,-1.5811108751350833,-0.47254401377141564,2.53875618256524
-2.085051818552454,-1.4625254470626465,-0.44715645194576326,2.5614415061364206
-2.0996770730230803,-1.3434970615551207,-0.42154203688439906,2.5904560561901
-2.1131120436386315,-1.2236529820167361,-0.39563747632249807,2.6254477777714706
-2.125348573458799,-1.1026497133140272,-0.36938299854478335,2.6660891242214384
-2.136375070591939,-0.9801708762287746,-0.34272210730256897,2.7120704704208047
-2.146176779354227,-0.8559259045118471,-0.3156014025983609,2.763094009513509
-2.1547360383993457,-0.7296494890051319,-0.2879704625032258,2.818868025075424
-2.162032533289397,-0.6011017013758799,-0.25978178225247156,2.879101454746009
-2.168043550303156,-0.47006873448026854,-0.23099076770501148,2.9434986860247974
-2.1727442376479584,-0.33636419685190755,-0.2015557808447635,3.011754550080818
-2.1761078796164774,-0.1998308951642376,-0.1714382353439553,3.0835495050482806
-2.17810618856812,-0.06034303081416845,-0.1406027402934725,3.1585450263726145
-2.1787096188762614,0.08219127469936804,-0.10901729002974636,3.2363792481266733
-2.1778877061292676,0.22782722563322141,-0.07665349754847962,3.316662925332223
-2.1756094338729355,0.37658048619827533,-0.043486868295157396,3.398975812296946
-2.1718436290109526,0.5284243383913785,-0.00949711017218794,3.4828635744588228
-2.1665593856270386,0.6832870163722587,0.025331525572400287,3.5678353693944476
-2.159726515463316,0.8410493852124099,0.06100987926634476,3.6533622442456606
-2.151316021611192,1.001543141535687,0.09754350170880137,3.738876499297815
-2.141300590195835,1.1645497152705004,0.13493226670177952,3.823772158172318
-2.12965509304313,1.32980004266402,0.1731699882835027,3.9074066616975607
-2.11635709261649,1.4969753584323264,0.2122440549004783,3.989103863301121
-2.1013873390321667,1.6657091177744747,0.2521350935334895,4.0681583482079615
-2.084730247854422,1.8355901065552074,0.2928166770155691,4.143841028001511
-2.0663743467888698,2.00616673155916,0.33425508729558423,4.21540587946729
-2.046312679473278,2.1769524056704896,0.3764091460902571,4.282097607655799
-2.024543155416573,2.3474318605959312,0.4192301221668151,4.343159925536875
-2.0010688368106138,2.5170681396856205,0.46266172142218387,4.397844065937381
-1.9758981554137576,2.6853099541705236,0.5066401620815577,4.445417085911039
-1.9490450558720522,2.8515990367246298,0.5510943329406681,4.485169499060744
-1.920529065504806,3.0153771048104296,0.5959460279312756,4.516421785478002
-1.8903752944567016,3.176092058793765,0.6411102457860556,4.538529386438807
-1.858614373868764,3.333203089133789,0.6864955396504436,4.550885892017356
-1.825282342977426,3.4861844520062886,0.7320043985706172,4.55292426976438
-1.7904204984573633,3.634527788468252,0.777533641268261,4.544116152409746
-1.7540752205726808,3.7777430002136505,0.8229748027923585,4.523969389434006
-1.7162977905705443,3.9153578441455457,0.8682144966866985,4.492024256353091
-1.677144212129089,4.046916556274566,0.9131347392502294,4.4478488910985385
-1.6366750465663433,4.171977950833758,0.9576132281612147,4.3910346741477575
-1.5949552670580058,4.290113552038808,1.0015235749026923,4.321192374929826
-1.5520541315376177,4.400906394245697,1.0447354986519906,4.237949940301807
-1.5080450675951607,4.503951163510028,1.0871149980550086,4.14095279199472
-1.4630055559600603,4.5988563429759255,1.1285245259749557,4.029867420361634
-1.4170169925303011,4.685248959950261,1.168823200178572,3.904388903678766
-1.3701645029307985,4.762782408183656,1.2078670892153598,3.764252738797562
-1.3225366788489619,4.83114762997176,1.2455096166033355,3.6092510358126764
-1.2742252025492442,4.890087686988151,1.2816021269614621,3.439252707943047
-1.2253243256793627,4.9394154294734225,1.3159946540408927,3.2542267896015464
-1.1759301713846284,4.979033602956211,1.348536921936908,3.0542674678570796
-1.1261398353550662,5.0089563356528135,1.379079596615479,2.8396188627673213
-1.076050271998538,5.0293305695577715,1.407475785243152,2.6106971103266847
-1.0257569663029604,5.040455691059224,1.433582756346419,2.3681069768483454
-0.9753524093923682,5.042799450135266,1.4572638261149025,2.112650161966398
-0.9249244148910155,5.037008297479758,1.4783903277345665,1.8453227136566368
-0.8745543319162179,5.023910565744864,1.4968435548711327,1.567299629626558
-0.8243152262587693,5.004511488326661,1.5125165511673984,1.2799057385429475
-0.7742701113755027,4.979979850223687,1.5253156085528279,0.9845732450155418
-0.7244703128732659,4.951627009125587,1.5351613410029834,0.682787708642046
-0.67495404278201,4.920879975815149,1.541989218089404,0.37602548150522486
-0.6257452430238585,4.889251048659504,1.545749472904456,0.06568651645979579
-0.5768527325372634,4.858307023863306,1.546406338069054,-0.2469732022267792
-0.5282696622986304,4.8296411716344165,1.5439366060467863,-0.5609056468589897
-0.4799732505822862,4.804850974433862,1.5383275495781963,-0.8753280793712189
-0.4319247408379476,4.785524139119871,1.529574268784484,-1.189771985740727
-0.38406949944674884,4.773234747542403,1.5176765489270767,-1.5041234262232057
-0.3363371519713248,4.769550748418251,1.5026353146648446,-1.8186561754138182
-0.2886416444871423,4.776053449136843,1.4844487529107064,-2.134060399081066
-0.24088110999577386,4.7943693237944185,1.4631081489198958,-2.4514706779907596
-0.19293741675782966,4.826214326093423,1.4385934421399882,-2.7724978745259246
-0.14467527349689543,4.873450899331369,1.410868463394729,-3.099269579652259
-0.09594076450358174,4.938157781722777,1.3798757675982065,-3.4344834991577735
-0.046559186686353976,5.022712020554177,1.3455309326066287,-3.781476636663049
0.003667933519187795,5.129880295012982,1.3077161662399983,-4.14430924649313
0.054966736469317615,5.262910488138228,1.266273073775067,-4.527853336031343
0.1075958413506999,5.425599656054021,1.2209945404147535,-4.937854451715348
0.1618518379112401,5.622280790539326,1.1716159958976,-5.38088827755835
0.21807464581663338,5.857596212754058,1.1178071131220164,-5.864029767441734
0.27665060794417395,6.135766373246441,1.059166815447599,-6.393831023631868
0.3380082716766384,6.4587441596884405,0.9952285052112804,-6.973759558548565
0.4025957132735228,6.822094813606428,0.9254909096257947,-7.598479425668215
0.47081666140958706,7.206869966411302,0.8495061153691126,-8.242554787601868
0.5428853610737001,7.566743871828227,0.7670805674930938,-8.842545130800705
0.6185527997919824,7.817355713663709,0.6786551161850868,-9.282192261001612
0.6967263569286195,7.853375151618042,0.5858331935750707,-9.416372887998055
0.7752601084448,7.618368785886025,0.49166946469509015,-9.16873978513207
0.8514437963036602,7.169608671577471,0.39998206684376947,-8.621772797198613
0.9231398830194348,6.632617157135652,0.31376433887178334,-7.95248073500799
0.9894660545907914,6.1053883898487715,0.23423953152170346,-7.298608646235835
1.0505199384892792,5.630222884442716,0.1612534450593451,-6.719870931914395
1.1068221673337064,5.214825070965873,0.09405473574020116,-6.227731550079201
1.158970418043365,4.853366092036789,0.03177742023940915,-5.814847096634006
1.207504078963733,4.536706737542239,-0.02637105072693091,-5.46929875829142
1.2528711463391553,4.25607738783094,-0.08106403830984511,-5.179698000155618
1.2954319202174647,4.004058988632336,-0.1328610183114013,-4.936541319682252
1.335472510103788,3.7746338875552286,-0.18222643150822382,-4.732276138342082
1.3732188489793404,3.562975622334623,-0.22954919289164466,-4.56100558857489
1.4088486052026867,3.3652048589784753,-0.27515924877739356,-4.418145726679555
1.4425006537924714,3.1781782283881657,-0.3193407060441891,-4.300126393429347
1.4742824360763531,2.9993223895583996,-0.3623419699784826,-4.204151792574352
1.5042756599719371,2.8265091307191788,-0.4043834879042261,-4.128014146553278
1.532540751279129,2.6579637551253197,-0.4456636293697589,-4.06994894459599
1.5591203888303822,2.492199482330139,-0.4863631188157188,-4.028521038195044
1.5840423836536837,2.327972042868014,-0.5266483291976692,-4.002532941845289
1.6073221040823638,2.1642500496666006,-0.5666736586161222,-3.990948822421446
1.6289646045790298,2.000197815482439,-0.6065831468403367,-3.99282947457286
1.6489665827338542,1.8351680136447746,-0.6465114415860652,-4.007275079250084
1.667318262870302,1.668701979034319,-0.686584192378566,-4.033373814817524
1.6840052826606453,1.5005355613344413,-0.7269179305267413,-4.070155525785152
