th1 (rad),w1 (rad/s),th2 (rad),w2 (rad/s),a1 (rad/s^2),a2 (rad/s^2)
5.876884740230271,2.305983691917464,2.964836700869012,-2.7814127597490623,5.216069647133525,4.565976548598656
5.899944577149446,2.358144388388799,2.9370225732715216,-2.7357529942630756,4.858804551975486,3.7789053043983674
5.923526021033334,2.406732433908554,2.9096650433288906,-2.697963941219092,4.397364225650241,2.846829691498104
5.94759334537242,2.4507060761650563,2.8826854039166996,-2.669495644304111,3.843435783153426,1.783215761284014
5.972100406134071,2.4891404339965906,2.8559904474736584,-2.651663486691271,3.215859011168269,0.6116779553441309
5.996991810474037,2.521299024108273,2.8294738126067456,-2.6455467071378296,2.5397896247864478,-0.6351942546788598
6.022204800715119,2.5466969203561374,2.803018345535367,-2.651898649684618,1.8449644971559107,-1.918327599456804
6.047671769918681,2.5651465653276966,2.776499359038521,-2.6710819256791862,1.163269815100743,-3.1956875706762307
6.073323235571958,2.576779263478704,2.749788539781729,-2.7030388013859485,0.5259746281873622,-4.426303298206574
6.099091028206745,2.5820390097605777,2.7227581517678696,-2.7473018343680145,-0.03892750196468213,-5.574142902311261
6.124911418304351,2.581649734740931,2.6952851334241896,-2.803043263391127,-0.5088532467194513,-6.611225344216858
6.1507279156517605,2.5765612022737363,2.6672547007902785,-2.8691555168332954,-0.8679497466061061,-7.519539699662077
6.176493527674498,2.567881704807675,2.6385631456219456,-2.944350913829916,-1.1074901467768414,-8.291612977599664
6.202172344722574,2.556806803339907,2.6091196364836464,-3.027267043605913,-1.2254162406482887,-8.929840041473213
6.227740412755973,2.544552640933424,2.5788469660475872,-3.1165654440206447,-1.2252360867949967,-9.444892004331663
6.2531859391653075,2.532300280065474,2.5476813116073806,-3.2110143640639612,-1.1145496559442105,-9.85361492225974
6.2785089419659625,2.521154783506032,2.515571167966741,-3.309550513286559,-0.9034706298117037,-10.17682034312647
6.303720489801023,2.512120077207915,2.4824756628338753,-3.4113187167178234,-0.6031570518559272,-10.43728379440028
6.328841690573102,2.506088506689356,2.448362475666697,-3.515691554661826,-0.2245847132548729,-10.658148218951501
6.353902575639996,2.503842659556807,2.413205560120079,-3.6222730368513414,0.2223808563144987,-10.861813443633686
6.378941002235564,2.5060664681199523,2.3769828297515656,-3.7308911712876784,0.7296196399230079,-11.069303110954834
6.404001666916764,2.513362664519182,2.339673918038689,-3.8415842023972266,1.2911450091552585,-11.30004545166753
6.429135293561956,2.5262741146107346,2.3012580760147165,-3.954584656913902,1.9033083530712172,-11.57198115656887
6.454398034708063,2.5453071981414466,2.2617122294455774,-4.07030446847959,2.5648877824486345,-11.901912084978296
6.479851106689478,2.570956075965933,2.2210091847607814,-4.189323589329374,3.2771219909457883,-12.306019103741031
6.505560667449137,2.603727295875391,2.1791159488674876,-4.312383780366784,4.0437398303775876,-12.800497918234225
6.531597940407891,2.644164694179167,2.13599211106382,-4.440388759549126,4.871024729608012,-13.402282615249074
6.558039587349683,2.6928749414752473,2.0915882234683285,-4.574411585701617,5.767942215462445,-14.129844075327716
6.584968336764435,2.7505543636298717,2.0458441076113125,-4.715710026454895,6.746348040320691,-15.004061651658605
6.612473880400733,2.8180178440330788,1.9986870073467635,-4.865750642971481,7.821281190246453,-16.04916807623539
6.640654058841064,2.8962306559355433,1.9500295009170487,-5.026242323733834,9.01132455583529,-17.29375278796887
6.66961636540042,2.986343901493896,1.8997670776797104,-5.199179851613523,10.338974736735617,-18.771763683361087
6.6994798044153585,3.0897336488612526,1.847775279163575,-5.386897488447134,11.83087837468566,-20.523341972247806
6.730377140903971,3.208042432608109,1.7939063042791037,-5.592130908169612,13.517619644566384,-22.59509781522636
6.7624575652300525,3.343218629053773,1.7379849951974076,-5.818081886321875,15.4323898456665,-25.038959687198442
6.7958897515205905,3.4975425275104377,1.6798041763341889,-6.068471483193859,17.607151576220843,-27.907753820644942
6.830865176795695,3.673614043272646,1.6191194615022504,-6.347549021400308,20.063469966199232,-31.24369426639681
6.867601317228421,3.8742487429346384,1.5556439712882473,-6.659985964064276,22.792374802799557,-35.05207934256176
6.906343804657768,4.102172490962634,1.4890441116476045,-7.010506757489894,25.71245941021138,-39.24529949982894
6.947365529567394,4.359297085064747,1.4189390440727057,-7.402959752488184,28.587246042732506,-43.53074704896256
6.990958500418041,4.645169545492072,1.3449094465478237,-7.83826722297781,30.87505310964477,-47.20491782741042
7.037410195872962,4.95392007658852,1.2665267743180457,-8.310316401251914,31.49860567491736,-48.83440043885089
7.086949396638847,5.268906133337693,1.1834236103055267,-8.798660405640423,28.630606883086923,-45.95419527649309
7.139638457972223,5.555212202168563,1.0954370062491225,-9.258202358405354,19.928297401281398,-35.38050360473652
7.195190579993909,5.7544951761813765,1.002854982665069,-9.61200739445272,4.069583349926615,-15.318579543398009
7.2527355317557225,5.795191009680643,0.9067349087205419,-9.7651931898867,-16.48570225071827,10.843949239801008
7.3106874418525285,5.630333987173461,0.8090829768216748,-9.656753697488691,-35.11813649310865,34.06106612798698
7.3669907817242635,5.279152622242374,0.7125154398467879,-9.316143036208821,-46.183539868841486,46.74148674758385
7.419782307946687,4.817317223553959,0.6193540094846997,-8.848728168732983,-49.43999164409804,48.75885087842129
7.467955480182227,4.322917307112979,0.5308667277973698,-8.361139659948769,-48.004445307777274,44.50779018774545
7.511184653253357,3.842872854035206,0.4472553311978821,-7.916061758071314,-44.762669502330674,37.954138474573455
7.549613381793709,3.395246159011899,0.36809471361716894,-7.53652037332558,-41.28674029782631,31.20969751528843
7.583565843383829,2.982378756033636,0.29272950988391316,-7.2244233981726955,-38.207405119729216,25.09009310710874
7.613389630944165,2.600304704836344,0.2204852759021862,-6.973522467101608,-35.69697685723124,19.794260649052326
7.639392677992529,2.2433349362640316,0.1507500512311701,-6.775579860611085,-33.744875229382835,15.284550423168836
7.661826027355169,1.9058861839702033,0.08299425262505926,-6.622734356379397,-32.280964622692665,11.453810021319285
7.680884889194871,1.5830765377432767,0.016766909061265295,-6.508196256166204,-31.224071081893577,8.189550912106139
7.696715654572304,1.270835826924341,-0.04831505350039675,-6.4263007470451425,-30.49861456112476,5.395033415485832
7.709424012841548,0.9658496813130933,-0.11257806097084817,-6.372350412890285,-30.03868885268358,2.9937850024616006
7.719082509654679,0.6654627927862575,-0.17630156509975103,-6.342412562865668,-29.78761597867308,0.9283523554053921
7.725737137582541,0.3675866329995267,-0.23972569072840771,-6.333129039311614,-29.696162070159918,-0.8425549290823959
7.729413003912537,0.0706250122979275,-0.30305698112152385,-6.341554588602438,-29.720624359409808,-2.347049878849571
7.730119254035516,-0.22658123129617058,-0.36647252700754823,-6.365025087390934,-29.821214806652435,-3.6027486596705
7.727853441722555,-0.5247933793626949,-0.4301227778814576,-6.401052573987639,-29.960866312557012,-4.619098612919545
7.722605507928928,-0.824402042488265,-0.494133303621334,-6.447243560116834,-30.10447964038384,-5.399431190594527
7.714361487504045,-1.1254468388921035,-0.5586057392225023,-6.501237872022779,-30.21859271469282,-5.942838224590475
7.703107019115125,-1.4276327660390318,-0.6236181179427301,-6.560666254268684,-30.271439301739616,-6.245949581434683
7.688830691454735,-1.7303471590564279,-0.689224780485417,-6.62312575008303,-30.233351142652374,-6.3046528181265735
7.671527219864171,-2.032680670482952,-0.7554560379862474,-6.686172278264296,-30.077439387269287,-6.115751371880371
7.651200413159341,-2.3334550643556446,-0.8223177607688903,-6.7473297919831,-29.780467316279218,-5.678513478150917
7.627865862515784,-2.631259737518437,-0.8897910586887213,-6.804114926764609,-29.323800652627316,-4.996025772973896
7.601553265140599,-2.92449774404471,-0.9578322079563675,-6.854075184494349,-28.694300830804476,-4.076240673269511
7.572308287700152,-3.211440752352755,-1.026372959801311,-6.894837591227044,-27.885018236976066,-2.9326024227098126
7.540193880176624,-3.4902909347225153,-1.0953213357135814,-6.924163615454142,-26.895553611478782,-1.58415830897723
7.5052909708293996,-3.759246470837303,-1.1645629718681227,-6.940005198543914,-25.73199013715559,-0.05510954889881422
7.467698506121026,-4.0165663722088585,-1.233963023853562,-6.940556294032902,-24.406354397774027,1.6261751813591345
7.4275328423989375,-4.260629916186598,-1.303368586793891,-6.924294542219311,-22.93563334356899,3.428583950777574
7.384926543237071,-4.489986249622288,-1.3726115322160841,-6.890008702711535,-21.340443675646096,5.319955491667016
7.3400266807408485,-4.703390686378749,-1.4415116192431994,-6.836809147794865,-19.64350503612181,7.268830783118531
7.292992773877061,-4.899825736739968,-1.509879710721148,-6.764120839963679,-17.868097084957018,9.24604156322285
7.2439945165096615,-5.078506707589538,-1.5775209191207846,-6.671660424331451,-16.036677299228657,11.225943989737628
7.193209449433766,-5.238873480581825,-1.6442375233640991,-6.559400984434075,-14.16980339577211,13.187165299161595
7.140820714627948,-5.380571514539546,-1.70983153320844,-6.427529331442459,-12.285450694061021,15.112807890397464
7.087014999482552,-5.5034260214801565,-1.7741068265228646,-6.276401252538484,-10.39875309946246,16.990132815317324
7.03198073926775,-5.607413552474781,-1.8368708390482493,-6.106499924385311,-8.52213892680203,18.809809621272475
6.975906603743002,-5.692634941742801,-1.8979358382921023,-5.918401828172586,-6.665788266430055,20.56486372578887
6.918980254325574,-5.759292824407102,-1.9571198565738281,-5.712753190914697,-4.838310969843302,22.249474012730076
6.861387326081504,-5.807675934105535,-2.0142473884829752,-5.490258450787396,-3.0475331718109713,23.857774909334236
6.803310566740448,-5.838151265823645,-2.069149972990849,-5.251680701694053,-1.301282371584365,25.38280400040644
6.7449290540822116,-5.8511640895394885,-2.1216667800077897,-4.997852661689989,0.39192758881495676,26.815713434606103
6.686417413186817,-5.847244813651339,-2.1716453066246895,-4.729695527343928,2.0223931820678733,28.145334605343784
6.627944965050303,-5.82702088183066,-2.2189422618981287,-4.448242181290491,3.578960067523501,29.358152480151336
6.569674756231996,-5.791231281155425,-2.2634246837110337,-4.154660656488978,5.04904062233627,30.43870871885533
6.511762443420442,-5.7407408749320625,-2.3049712902759234,-3.850273569300424,6.418919250811902,31.370411380819853
6.454355034671121,-5.676551682423944,-2.3434740259689275,-3.536569455492226,7.674324402073299,32.13668481384206
6.397589517846881,-5.599808438403211,-2.3788397205238496,-3.215202607353805,8.801214773570228,32.722349771580106
6.341591433462849,-5.511796290667509,-2.4109917465973876,-2.887979109638004,9.78669782011609,33.11508697874873
6.286473470556174,-5.413929312466348,-2.4398715376937674,-2.5568282398505167,10.619976288466077,33.30681491896899
6.23233417743151,-5.307729549581688,-2.4654398200922727,-2.223760090660827,11.293208338887236,33.29481179815251
6.179256881935693,-5.194797466192815,-2.487677420998881,-1.8908119726793018,11.802172915109272,33.08243661877609
6.127308907273765,-5.076775737041722,-2.506585540725674,-1.5599876064915408,12.146655416522924,32.679353941513504
6.076541149903347,-4.955309182876493,-2.522185416790589,-1.2331940670764057,12.330506444592723,32.10123388685071
6.026988058074583,-4.832004118430566,-2.534517357461353,-0.9121817282078986,12.361371727842123,31.36897096817044
5.978668016890277,-4.708390401152145,-2.543639174743432,-0.5984920185261942,12.250135438155805,30.507528358000236
5.931584112878755,-4.585889046770587,-2.549624094928694,-0.2934167349461918,12.010153486791253,29.544556227889796
5.8857252224110495,-4.465787511902675,-2.552558262278156,0.0020288273327061512,11.65637222064827,28.508947373558602
5.8410673472920225,-4.349223789696192,-2.552537974004829,0.28711830106829217,11.204429503214506,27.429480788234066
5.79757510939506,-4.237179494664047,-2.549666790994146,0.5614131089506329,10.669821796100397,26.33367049246011
5.75520331444842,-4.130481276703043,-2.5440526599046396,0.824749813875234,10.067197702586709,25.246892484590415
5.713898501681389,-4.029809299677176,-2.535805161765887,1.0772187387211383,9.40981161548653,24.191817171587164
5.673600408684617,-3.93571118352231,-2.525032974378676,1.3191369104370099,8.709146034463263,23.188135925489465
5.6342432968493945,-3.8486197231776775,-2.5118416052743058,1.5510182696919046,7.974691429035191,22.25254290185459
5.595757099617618,-3.7688728088873256,-2.496331422577387,1.7735436987104505,7.213859840022167,21.39891792767469
5.558068371528745,-3.696734210487104,-2.4785959855902826,1.9875328779871975,6.43200266248462,20.63865149491893
5.521101029423874,-3.6324141838622577,-2.4587206568104105,2.1939193929363867,5.632503125739751,19.98105560641767
5.484776887585252,-3.5760891526048604,-2.4367814628810467,2.3937299490005635,4.816918412185807,19.433810893958757
5.449015996059203,-3.5279199684830025,-2.412844163391041,2.588068057940151,3.9851538630832763,19.003407737080796
5.413736796374374,-3.4880684298521696,-2.3869634828116393,2.778102135310959,3.1356616077599395,18.69554412985247
5.378856112075852,-3.4567118137745703,-2.3591824614585297,2.9650575766094835,2.265668353110579,18.515443082625403
5.344288993938106,-3.4340551302434643,-2.3295318856924347,3.1502120074357376,1.3714531618169457,18.468044485452754
5.309948442635671,-3.420340598625295,-2.2980297656180775,3.334892452290265,0.4487183501009665,18.55800672271556
5.275745036649417,-3.4158534151242854,-2.2646808410951746,3.520472519517421,-0.5068705397242288,18.789416109705062
5.2415865024981745,-3.420922120521528,-2.2294761159000003,3.7083666806144717,-1.4988496569637328,19.16503850577735
5.207377281292959,-3.435910617091165,-2.1923924490938558,3.900017065672245,-2.528623506351415,19.684844099250125
5.173018175122047,-3.4611968521546794,-2.1533922784371335,4.096865506664746,-3.593313454397553,20.343376010796202
5.138406206600501,-3.497129986698655,-2.112423623370486,4.300299266772708,-4.682299753495201,21.125299006291844
5.103434906733514,-3.543952984233607,-2.069420630702759,4.5115522568356266,-5.771750486497402,21.998157553196457
5.067995376891178,-3.601670489098581,-2.024305108134403,4.7315338323675915,-6.816216746268585,22.901065247317838
5.031978672000192,-3.669832656561267,-1.9769897698107268,4.96054448484077,-7.736364941604808,23.728016102769903
4.99528034543458,-3.7471963059773152,-1.927384324962319,5.197824645868469,-8.402663210806415,24.305509920205015
4.9578083823748065,-3.8312229380853795,-1.8754060785036344,5.440879745070519,-8.617549280476833,24.367897304917268
4.919496152993952,-3.917398430890148,-1.8209972810529291,5.684558718119692,-8.105287839814435,23.543069807300135
4.88032216868505,-3.9984513092882925,-1.764151693871732,5.919989416192693,-6.530829093057988,21.37788952161418
4.840337655592167,-4.063759600218872,-1.7049517997098051,6.133768311408835,-3.581548545655415,17.450206726710586
4.799700059589979,-4.0995750856754265,-1.6436141165957168,6.308270378675941,0.8639332981668998,11.600870913793319
4.758704308733225,-4.090935752693757,-1.5805314128089574,6.424279087813874,6.526205347884109,4.221134042621094
4.717794951206287,-4.025673699214916,-1.5162886219308187,6.466490428240085,12.64246122307706,-3.637204037765146
4.677538214214137,-3.899249086984145,-1.451623717648418,6.430118387862433,18.19270862884333,-10.579393619332496
4.638545723344296,-3.7173220006957117,-1.3873225337697936,6.324324451669108,22.359782427043463,-15.504721103251114
4.601372503337339,-3.4937241764252773,-1.3240792892531026,6.169277240636597,24.859930619595723,-18.056863797614422
4.566435261573087,-3.2451248702293203,-1.2623865168467365,5.988708602660453,25.905026932583816,-18.560989711455328
4.533984012870794,-2.986074600903482,-1.202499430820132,5.803098705545899,25.936089259273416,-17.64843062558909
4.504123266861758,-2.726713708310748,-1.144468443764673,5.626614399290008,25.3867085038165,-15.929255337393336
4.476856129778651,-2.472846623272583,-1.088202299771773,5.467321845916075,24.57875261239169,-13.851489554401073
4.452127663545925,-2.227059097148666,-1.0335290813126123,5.328806950372065,23.71466109244539,-11.694260186957344
4.429857072574438,-1.9899124862242121,-0.9802410118088917,5.211864348502491,22.90673313186072,-9.610978881055233
4.409957947712196,-1.760845154905605,-0.9281223683238667,5.115754559691939,22.20935325192215,-7.67541730676292
4.39234949616314,-1.5387516223863835,-0.8769648227269473,5.03900038662431,21.643095467520556,-5.9157756450721095
4.376961979939276,-1.3223206677111778,-0.8265748188607042,4.9798426301735885,21.210140173842095,-4.336325188197814
4.363738773262164,-1.110219265972757,-0.7767763925589682,4.936479378291611,20.90332634358699,-2.9300641471657314
4.352636580602437,-0.9011860025368871,-0.7274115987760521,4.9071787368199535,20.711164401717536,-1.6857202499528243
4.3436247205770675,-0.6940743585197118,-0.6783398114078526,4.890321534320425,20.620465411836502,-0.5914419661124909
4.33668397699187,-0.48786970440134675,-0.6294365960646483,4.8844071146593,20.617624127307042,0.36336921040525333
4.331805279947857,-0.2816934631282763,-0.5805925249180552,4.888040806763353,20.689167407662886,1.1872394598693887
4.328988345316574,-0.07480178905164744,-0.5317121168504217,4.899913201362047,20.821917066606993,1.8863418290598235
4.328240327426058,0.1334173816144225,-0.48271298483680125,4.918776619652645,21.00296325416846,2.464495403461655
4.3295745012422024,0.3434470141561071,-0.4335252186402748,4.943421573687262,21.21955802183115,2.923308022985404
4.333008971383763,0.5556425943744187,-0.3840910029034022,4.972654653917116,21.45899078675465,3.2623938737752147
4.338565397327508,0.7702325022419652,-0.33436445636423107,5.005278592654869,21.70848115863434,3.4796342436806635
4.3462677223499275,0.9873173138283086,-0.28431167043768235,5.040074935091676,21.955110238867718,3.57146926038563
4.356140895488211,1.2068684162169858,-0.2339109210867656,5.075789627695532,22.18580344039214,3.533217999297889
4.36820957965038,1.4287264506209072,-0.18315302480981027,5.111121807688511,22.387372901588236,3.359428061096647
4.38249684415659,1.6526001796367895,-0.13204180673292515,5.144716088299478,22.546623851476415,3.044255847486429
4.399022845952958,1.8780664181515536,-0.08059464584993037,5.175158646774342,22.650525816877135,2.5818766184467963
4.4178035101344735,2.104571676320325,-0.028843059382186946,5.20097741295881,22.686445859577567,1.9669198482343628
4.438849226897677,2.3314361349161006,0.02316671474740116,5.220646611441154,22.642436979328377,1.1949210906600731
4.462163588246838,2.5578605047093843,0.0753731808618127,5.232595822347755,22.50757059058571,0.26277716763393577
4.487742193293932,2.7829362106152415,0.12769913908529026,5.235223594024094,22.272297970697394,-0.8308123265947234
4.515571555400085,3.0056591903222154,0.1800513750255312,5.226915470758147,21.928822315178017,-2.0849368176111995
4.545628147303307,3.2249474134739957,0.23232052973311268,5.206066102582035,21.471461077817555,-3.4961203165167025
4.577877621438047,3.439662024252171,0.28438119075893303,5.171104899416868,20.896978063487254,-5.058040087984404
4.612274241680568,3.6486318048870436,0.3360922397531017,5.120524498537024,20.204866469183226,-6.761334684668108
4.648760559729439,3.850680469578876,0.3872974847384719,5.052911151690343,19.39756755935022,-8.593513160934721
4.687267364425228,4.044656145172378,0.43782659625537534,4.966976020080995,18.480614341000383,-10.538972365354958
4.727713925876952,4.229462288582382,0.4874963564561853,4.861586296427446,17.46269457422634,-12.579124978798044
4.7700085487627755,4.404089234324645,0.5361122194204597,4.735795046639466,16.355631685092327,-14.692638480622911
