th1 (rad),w1 (rad/s),th2 (rad),w2 (rad/s)
2.75500339348674,0.6246777211275752,5.129183315109696,0.9731098834504608
2.7612501706980157,0.6214522306528516,5.1389144139442005,1.0576896065597206
2.7674646930045443,0.619744309857626,5.149491310009798,1.1430047181642682
2.7736621361031206,0.6196291123997436,5.16092135719144,1.2290626079758602
2.779858427227118,0.6211823072565511,5.173211983271199,1.315871511072136
2.7860702502996837,0.624479602699457,5.18637069838192,1.4034401217062449
2.7923150463266784,0.6295962145814504,5.200405099598983,1.4917771255252115
2.7986110084724927,0.6366062679819422,5.215322870854235,1.580890637490934
2.804977071152312,0.6455821203414047,5.231131777229145,1.6707875323134762
2.811432892355726,0.6565935933751768,5.24783965255228,1.7614726538283947
2.817998828289478,0.669707100355509,5.2654543790905635,1.8529478895544462
2.824695899293033,0.6849846548887417,5.283983857986108,1.945211096754
2.8315457458419204,0.7024827472107693,5.303435968953648,2.0382548668112777
2.838570573314028,0.7222510744277169,5.323818517621761,2.1320651157989046
2.8457930840583052,0.7443311122209781,5.34513916877975,2.2266194909101564
2.853236395180515,0.7687545175311042,5.367405363688851,2.321885585216479
2.8609239403558258,0.7955413548815922,5.390624219541016,2.417818957224744
2.8688793539046418,0.8246981435790429,5.414802409113264,2.5143609572423506
2.8771263353404324,0.8562157293286181,5.439946018685688,2.6114363699146863
2.8856884926337187,0.8900669921356977,5.466060382384835,2.708950891781995
2.894589162555076,0.9262044130072202,5.493149891302655,2.806788474585283
2.903851206685148,0.9645575351415783,5.521217776048507,2.904808579536723
2.913496782036564,1.0050303711162991,5.550265861843875,3.0028434049356867
2.923547085747727,1.0474988259841205,5.580294295893232,3.100695169235972
2.934022074007568,1.0918082268506342,5.611301247585592,3.1981335535490873
2.9449401562760746,1.1377710717646607,5.643282583121083,3.2948934308214404
2.956317866993721,1.1851651335025015,5.676231517429297,3.3906730322968506
2.968169518328746,1.2337320754480299,5.7101382477522655,3.4851327235655667
2.9805068390832266,1.2831767550754585,5.744989574987922,3.577894580109256
2.9933386066339813,1.333167402788614,5.780768520789014,3.6685429628111472
3.0066702806618673,1.383336866862175,5.817453950417125,3.756626293997422
3.020503649330489,1.4332851055323301,5.855020213357099,3.8416602206006045
3.034836500385812,1.482583081586013,5.8934368155631045,3.9231323195864034
3.0496623312016724,1.5307781704173102,5.932668138758968,4.000508449222407
3.0649701129058453,1.5774011280264553,5.972673223251192,4.073240776883368
3.08074412418611,1.6219745813241113,6.013405631020026,4.140777420818731
3.096963869999351,1.6640229023950377,6.054813405228213,4.202573533350471
3.113604099023301,1.703083217014768,6.096839140561718,4.258103533146794
3.1306349311934487,1.738717184571224,6.139420175893186,4.306874074413191
3.148022103039161,1.7705230828981715,6.182488916637317,4.34843723335839
3.1657273338681424,1.798147649954306,6.225973288970901,4.382403310578024
3.1837088103676856,1.8212970870106535,6.269797322076681,4.408452604833179
3.2019217812377923,1.8397466249598797,6.313881848125013,4.426345519078861
3.220319247487391,1.853348102202652,6.358145303315802,4.435930418699521
3.2388527285094173,1.8620350992217152,6.402504607502798,4.437148773617222
3.2574730795016347,1.8658253149501094,6.44687609523897,4.430037272303947
3.276131332651136,1.864820040947239,6.49117646796201,4.414726782629183
3.2947795330606082,1.8592007743817136,6.535323735788301,4.391438233427285
3.3133715408044253,1.8492231910505121,6.579238118122574,4.360475681508402
3.3318637727149305,1.8352088571015654,6.622842874937658,4.322216992698082
3.350215861285946,1.8175351781400808,6.666065044864639,4.277102687518901
3.368391213067347,1.796624157683655,6.708836071739828,4.225623573368313
3.3863574546441835,1.7729305604059926,6.751092307473511,4.168307803213344
3.4040867602482434,1.7469300522098994,6.792775385505645,4.10570796989995
3.4215560607703424,1.7191078267131492,6.833832465204645,4.038388774082248
3.4387471390374738,1.689948137182476,6.874216352945467,3.966915704469861
3.4556466204092984,1.6599250465119502,6.913885509990166,3.891845054535185
3.472245870874418,1.6294945972071173,6.952803960535518,3.8137154822060806
3.488540816846489,1.5990884983840963,6.990941115357579,3.7330412085083102
3.50453170183033,1.5691093348181944,7.028271527442662,3.6503068549374142
3.520222795178512,1.5399272285527055,7.064774595992036,3.5659638418863326
3.535622067464039,1.5118778283460412,7.1004342344108995,3.480428213374495
3.5507408457474994,1.4852614659729566,7.135238516544645,3.394079716068329
3.565593460407229,1.4603432992242853,7.169179313705328,3.307261941055553
3.5801968933994717,1.4373542565466384,7.202251933115884,3.2202833320261934
3.594570435964938,1.4164926044024044,7.234454766436145,3.133418870046572
3.608735362008962,1.3979259724000515,7.265788955136611,3.04691225966654
3.6227146217329627,1.3817936901361219,7.296258077733277,2.960978460687865
3.636532558634324,1.3682093110599456,7.325867862340155,2.8758064320470247
3.6502146517449234,1.357263220605926,7.354625926660626,2.7915619769810975
3.663787283950983,1.3490252469430595,7.382541546430437,2.7083906005368936
3.6772775364204136,1.343547212040376,7.409625452435805,2.6264203106117185
3.6907130085408175,1.3408653778017008,7.4358896555419225,2.545764311533215
3.7041216623188347,1.3410027565477909,7.461347298657254,2.4665235544553226
3.7175316898843125,1.3439712671038708,7.486012534201808,2.3887891215499755
3.730971402555351,1.349773727320901,7.509900425417308,2.3126444312424588
3.74446913982856,1.358405681245755,7.533026869729732,2.2381672597963833
3.7580531966410176,1.3698570646311492,7.555408542327696,2.1654315806718345
3.771751767287329,1.384113716326303,7.577062858134415,2.0945092275398816
3.785592904450592,1.401158745590576,7.598007950409814,2.0254713899108947
3.7996044919064977,1.420973766778454,7.618262664308923,1.9583899522713724
3.813814229574282,1.4435400133783987,7.637846563831637,1.8933386886406265
3.828249629708066,1.468839343239642,7.656779950718043,1.8303943247355812
3.8429380231404626,1.4968551461456694,7.675083893965399,1.7696374796143715
3.857906574601919,1.5275731638145458,7.692780268761543,1.7111534978685963
3.8731823062400648,1.5609822310190788,7.709891803740229,1.6550331822299766
3.8887921285502554,1.59707494489304,7.726442135562529,1.6013734349018716
3.9047628779991856,1.6358482676701571,7.742455869911548,1.5502778140472497
3.9211213606758872,1.6773040661184742,7.75795864805202,1.5018570096689103
3.937894401337072,1.7214495887965662,7.77297721814871,1.4562292405938855
3.955108897225038,1.7682978799702227,7.787539510554649,1.413520571396468
3.9727918760247403,1.817868126579282,7.8016747162686135,1.3738651448263903
3.990970557290533,1.8701859320186052,7.815413367716878,1.3374053216058917
4.009672416610719,1.9252835076757813,7.828787420932937,1.3042917152736557
4.028925251687477,1.9831997701325952,7.841830338085673,1.2746831050380885
4.048757249388803,2.0439803286739253,7.854577169136054,1.2487462043177662
4.069197052675542,2.107677344253078,7.8670646311792325,1.2266552567690483
4.090273826118072,2.174349237349703,7.879331183746923,1.20859142513105
4.11201731849157,2.244060218262973,7.891417097998233,1.194741931195599
4.134457920674199,2.316879609380057,7.903364517310189,1.1852988977272259
4.157626716768,2.3928809249642233,7.915217506287461,1.1804578353808093
4.181555526017642,2.4721406701910116,7.927022084641269,1.1804157098515844
4.206276932719552,2.5547368177668854,7.938826241739785,1.185368517021532
4.231824300897221,2.640746917815814,7.95067992691,1.1955082872586296
4.25823177007538,2.730245795228895,7.962635009782587,1.2110194349684111
4.285534228027669,2.8233027888482978,7.974745204132271,1.2320743668616172
4.313767255916152,2.919978489296934,7.987065947800887,1.2588282632476462
4.342967040809121,3.0203209376380675,7.9996542304333635,1.2914129522273219
4.373170250185502,3.1243612560582803,8.012568359955637,1.3299298083117046
4.404413862746084,3.2321086950923092,8.025867658038754,1.3744416261652372
4.436734949697008,3.3435451001192553,8.039612074300406,1.4249634482248634
4.4701704006982,3.4586188233056934,8.053861708782655,1.4814523630073675
4.504756588931257,3.5772381358487157,8.068676232412729,1.5437963396536187
4.540528970289745,3.6992642287855415,8.084114195809265,1.6118022236312664
4.5775216125776,3.824503927676093,8.100232218045578,1.6851830875266285
4.615766651854361,3.9527022853338405,8.117084048920844,1.763545207334942
4.6552936747077,4.083535255014628,8.134719500994194,1.846375015177307
4.696129027257846,4.21660268110084,8.153183251145967,1.933026459334907
4.738295054068854,4.3514218721908815,8.172513515739315,2.0227092764782784
4.781809272790763,4.487422039816279,8.192740608504097,2.1144787433890464
4.826683493188926,4.623939892975689,8.213885395937988,2.2072275214842603
4.872922892118683,4.760216674282437,8.23595767115283,2.29968023408088
4.920525058861507,4.895396910201093,8.258954473493638,2.3903914235468045
4.969479027963518,5.028529130875384,8.282858387729107,2.4777475269447256
5.019764319272272,5.158568802436925,8.307635862998554,2.5599734919216153
5.071350007296641,5.284383716349938,8.33323559791777,2.635144639629778
5.124193844460141,5.404762106406753,8.359587044314068,2.701204379000038
5.178241465524208,5.518423822126341,8.386599088104068,2.7559883939538126
5.233425703745472,5.624034979322059,8.414158972043607,2.7972559609004826
5.289666053538693,5.720226626395149,8.442131531652612,2.8227290925612136
5.3468683198026445,5.805618086378061,8.470358822578223,2.8301402102333433
5.404924500666425,5.878845720376984,8.498660224680556,2.8172889604869265
5.463712957870195,5.93859784937788,8.526833114285425,2.7821085301885407
5.523098936363974,5.983656393172745,8.554654199587311,2.722741274295497
5.582935500295702,6.012945353944875,8.581881612330266,2.637622552031895
5.64306495383515,6.025585513655308,8.608257837850585,2.5255702968158373
5.703320808971704,6.020953592678406,8.633513540818743,2.38587602692927
5.763530344898488,5.998742672743413,8.657372301088037,2.2183908711566183
5.823517771625922,5.95901907843534,8.679556209799603,2.023598050837088
5.883107962410276,5.902269440710748,8.699792190307974,1.802661639729167
5.942130656817383,5.829430766507798,8.717818806705266,1.557440976272736
6.000424964482462,5.741896497244051,8.733393216467993,1.2904614888575194
6.0578439294549025,5.6414931455354544,8.746297831356568,1.0048363286156918
6.114258860910257,5.530425253753237,8.756346194642724,0.7041389800260582
6.16956311344779,5.411190770410734,8.763387584442984,0.3922341254606142
6.223675021151897,5.286473665457406,8.76730992569759,0.07308100892551384
6.276539757806471,5.159024579269598,8.768040735786846,-0.2494713849966087
6.328130003599167,5.031542455791516,8.76554602193688,-0.5718763164210043
6.378445428157082,4.906569836434729,8.759827258772669,-0.8910496790411253
6.42751112652143,4.7864118796045085,8.750916761982257,-1.204485711768976
6.475375245317474,4.673084981415478,8.738871904864567,-1.5103225510148925
6.52210609513163,4.568296234311342,8.723768679354418,-1.8073597659505278
6.567789057474743,4.4734509552578805,8.705695081694913,-2.095036044248278
6.6125235670273215,4.389682853786984,8.68474472125243,-2.373378721869166
6.656420395565191,4.317900303948958,8.661010934033738,-2.642937805613922
6.699599398604681,4.258842423172337,8.634581555977599,-2.904716072601355
6.742187822836404,4.213139801320624,8.605534395251585,-3.1601045770772274
6.78431922084961,4.181376278571783,8.573933349480813,-3.4108302479623775
6.826132983635327,4.1641497376167,8.53982504700119,-3.658919789798489
6.8677744810114945,4.162131173564877,8.503235849103204,-3.9066820819906924
6.909395792747143,4.17612214502774,8.464169028283298,-4.156709699162822
6.951157014197421,4.207110910976946,8.42260193129167,-4.411898772079203
6.9932281233071905,4.256326811528675,8.378482943570878,-4.6754845762453625
7.035791391422477,4.325290101026921,8.331728097808424,-4.951086854839146
7.079044292432746,4.415849092815039,8.282217229260032,-5.2427518301614615
7.123202783360896,4.5301852481202545,8.229789710958418,-5.55496299734367
7.1685046358420985,4.670743985333096,8.174240080984982,-5.892562036584966
7.21521207569543,4.8400035022155405,8.115314460619132,-6.260459127932178
7.2636121107175855,5.039906528637448,8.052709869339811,-6.662891565480825
7.31401117600396,5.2706239101978865,7.986080953685002,-7.101772951091193
7.3667174151059385,5.528085707775205,7.915063224174091,-7.573348881664646
7.42199827218369,5.799537855658786,7.8393297353574445,-8.062120752339048
7.479993650740278,6.056917248836815,7.758708527834054,-8.531728459142649
7.540562823228647,6.250872879180347,7.6733912432426274,-8.916686195711389
7.60307155202045,6.31543595156888,7.584224381285513,-9.128834969040037
7.666225911536139,6.1968337240670595,7.492936031595113,-9.097192997637535
7.728194248776809,5.895625301351269,7.401964101618737,-8.825965500412098
7.787150501790322,5.4729350791735385,7.313704446614616,-8.402335045071652
7.841879852582057,5.005828015338864,7.229681096163899,-7.934077573359625
7.891938132735445,4.546879888178355,7.150340320430303,-7.493992939018917
7.937406931617229,4.119019595187125,7.075400391040113,-7.11357025564041
7.9785971275691,3.727030803560814,7.004264688483709,-6.799386042161699
8.015867435604708,3.367761573216628,6.936270828062092,-6.547354338021928
8.049545051336874,3.035546853496842,6.870797284681873,-6.350194165297221
8.079900519871844,2.724493929193805,6.807295343028901,-6.200520883216126
8.107145459163782,2.4292761894356265,6.74529013419674,-6.091878835156092
8.131438221058138,2.1453159907006243,6.684371345845179,-6.018939966419923
8.152891380965144,1.8687475799419264,6.62418194618098,-5.977405612901197
8.171578856764564,1.5963187109668662,6.564407890051968,-5.963825860500902
8.187542043874233,1.3252906541106506,6.504769631446959,-5.975414736858289
8.20079495041534,1.0533564207805157,6.445015484078376,-6.00988531741866
8.211328514623144,0.778581717769423,6.38491663090419,-6.06530854280623
8.219114331800839,0.4993676945519661,6.324263545476128,-6.139992850490528
8.224108008746358,0.2144328566890647,6.262863616971222,-6.232380338259876
8.226252337313248,-0.07718890381518323,6.200539813588623,-6.340955798976258
8.225480448275096,-0.37613737554748505,6.13713025559886,-6.464166318442025
8.221719074519621,-0.6827057086972518,6.07248859241444,-6.600350734226609
8.214892017432648,-0.9968147875887768,6.006485085072174,-6.74767992407456
8.20492386955676,-1.3179871669920855,5.939008285831428,-6.904110503565118
8.191743997886839,-1.6453263376290628,5.869967180795777,-7.067355901328887
8.175290734510549,-1.9775078384181977,5.799293621782488,-7.234879702611946
8.155515656126367,-2.312789011549667,5.726944824756369,-7.403916286393829
8.13238776601087,-2.649043617615718,5.65290566189243,-7.571522781026424
8.105897329834713,-2.9838257463437863,5.577190434082166,-7.734663966781038
8.076059072371276,-3.3144643043568522,5.499843794414355,-7.890327937860708
8.042914429327707,-3.6381849956425336,5.420940515035748,-8.035665471573315
8.006532579371282,-3.9522517316541252,5.340583860320015,-8.168140978869795
7.96701006205474,-4.254114829339815,5.258902450531317,-8.285678850844835
7.924468913761342,-4.541550392102721,5.176045662022869,-8.386787275837495
7.879053409840315,-4.812774956948102,5.092177789264494,-8.470643115368954
7.830925660270834,-5.066522267041135,5.007471358110805,-8.537126317486358
7.780260437600423,-5.302074465966905,4.922100094935941,-8.586799730300363
7.727239692940754,-5.519246876958459,4.836232097632938,-8.620838367543637
7.672047224171169,-5.718332184768291,4.750023713957502,-8.640919229599643
7.614863902323486,-5.900014788268178,4.663614521661505,-8.649087168207823
7.5558637544408045,-6.065268470657396,4.577123649979427,-8.647613355988707
7.49521106973423,-6.215250281650872,4.49064751641954,-8.63886100727713
7.433058566917722,-6.351201252214999,4.404258906346769,-8.625169106487201
7.369546554395572,-6.474361209862274,4.318007215281897,-8.608760276497613
7.304802942296949,-6.585901452241043,4.231919612516921,-8.59167462437294
7.238943927774539,-6.686876032638614,4.146002866273192,-8.575728091733808
7.172075167448153,-6.778190243569774,4.060245585355854,-8.562491738451941
7.104293265012455,-6.860583598304734,3.974620667971334,-8.553287404097516
7.035687429029408,-6.934624068162656,3.8890877939303587,-8.549195052538302
6.966341188347781,-7.000710323275997,3.8035958434049757,-8.551067500224434
6.896334085115021,-7.059079034900423,3.718085168402731,-8.559548887260641
6.825743294766017,-7.109814758711592,3.6324896795301247,-8.575093977136065
6.754645147178901,-7.152860416052896,3.546738739758764,-8.597986048718457
6.6831165430183725,-7.188026859430992,3.4607588792715793,-8.628351719468267
6.611236274424063,-7.215000424534588,3.374475362076897,-8.666171503468261
6.539086270178717,-7.233347735454672,3.2878136470422143,-8.711285281626774
6.46675279282417,-7.242517361139213,3.2007007942259467,-8.763392179889076
6.3943276192127785,-7.241838247285829,3.113066872427056,-8.822044657962259
6.32190923673992,-7.2305152008827385,3.024846425847433,-8.88663695272392
6.249604084731092,-7.207622116512335,2.9359800563201937,-8.956388444273358
6.1775278635659685,-7.172094131922757,2.84641617187746,-9.030323062619582
6.105806922246741,-7.122720501900863,2.756112941251264,-9.107246564669639
6.034579717227732,-7.058140679966143,2.6650404756045676,-9.185724400927723
5.963998310428071,-6.976846857597605,2.5731832315952903,-9.264063940241098
5.894229841852095,-6.877196938139758,2.4805425921928794,-9.340305951732432
5.825457872470698,-6.7574424527541535,2.387139532675555,-9.412231292813201
5.757883447943156,-6.615776010758851,2.2930172197474232,-9.477389448727036
5.691725687835567,-6.45040219412723,2.1982433252601528,-9.533155526397286
5.627221665894295,-6.259634007960596,2.10291176999618,-9.576821060763006
5.5646253258146885,-6.042013817487172,2.00714355938855,-9.605721110009481
5.504205187639816,-5.796453114306493,1.911086348288455,-9.617395372714247
5.446240656496752,-5.52237987405057,1.8149123945613126,-9.609774680900133
5.391016857756246,-5.21987668460596,1.7188146477523112,-9.581377098765403
5.338818090910187,-4.889788769119084,1.623000876764657,-9.531491591914277
5.289920203218996,-4.533780249819513,1.5276859608455142,-9.460323882530675
5.244582400720801,-4.154320848680295,1.4330827220202074,-9.369080554545354
5.203039192233998,-3.7545939274211433,1.3393919164747539,-9.259974591227571
5.165493252959787,-3.3383289594999104,1.246792170562478,-9.136147501733909
5.132109963364788,-2.9095743622197845,1.155430695545139,-9.001517444806627
5.10301421974259,-2.4724366537128186,1.0654155210970728,-8.860575674199326
5.078289853205462,-2.030816360171097,0.9768097643550796,-8.718161867815757
5.057981689603751,-1.5881689438849498,0.889628145676922,-8.579250650675647
5.0421000001649015,-1.147311268671253,0.8038356391701655,-8.448777194432699
5.0306268874781885,-0.7102832751275878,0.7193478672258385,-8.331521277381292
5.023524054726913,-0.2782635202089511,0.6360326544520256,-8.232059520422446
5.020741419524823,0.14847166227680075,0.5537120592478011,-8.154787281918026
5.022226136147591,0.5705612707377998,0.47216418642862085,-8.104006489328663
5.027931748854969,0.989563283006403,0.3911241215353342,-8.084073895584531
5.037827381685033,1.4079668337096898,0.3102833825794889,-8.099605220253283
5.0519070500221295,1.8292285242306252,0.2292873303769561,-8.155732827166394
5.0701993352644354,2.257843521926564,0.14773000210529214,-8.25841522971711
5.092777770483701,2.699451669609123,0.06514584980812103,-8.41479022915903
5.119772287179792,3.1609542155972523,-0.019002052483469256,-8.633537113785671
5.151381829335764,3.6505557356480147,-0.10533742362132596,-8.925136118903088
5.187887386692244,4.177493954278602,-0.19458878481035685,-9.301709868190358
