th1 (rad),w1 (rad/s),th2 (rad),w2 (rad/s),a1 (rad/s^2),a2 (rad/s^2)
4.123508799877243,-2.883574832528798,0.39424509211598735,-0.20381433479697858,7.153406011923929,-2.4210220903774444
4.094673051551955,-2.812040772409559,0.39220694876801754,-0.22802455570075303,7.22703638631771,-1.832297378884365
4.066552643827859,-2.739770408546382,0.38992670321101003,-0.24634752948959668,7.291015886431889,-1.280329685635034
4.039154939742396,-2.6668602496820633,0.38746322791611404,-0.259150826345947,7.343557548066012,-0.7667480844478777
4.0124863372455755,-2.5934246742014033,0.38487171965265454,-0.26681830719042576,7.383257673880733,-0.29277988718319276
3.9865520905035616,-2.519592097462596,0.3822035365807503,-0.2697461060622577,7.409072210887857,0.14076014776018
3.9613561695289357,-2.4455013753537176,0.3795060755201277,-0.26833850458465586,7.42028909896596,0.5334659731463319
3.9369011557753986,-2.371298484364058,0.3768226904742812,-0.26300384485319256,7.416497839772787,0.8853245784703664
3.913188170931758,-2.2971335059663303,0.37419265202574925,-0.2541505990684889,7.397557508297945,1.1966912310197253
3.8902168358720948,-2.223157930883351,0.3716511460350644,-0.24218368675829166,7.363564316707644,1.4682581934573158
3.8679852565632613,-2.1495222877162745,0.3692293091674815,-0.2275011048237185,7.314819672942887,1.7010191993512365
3.8464900336860985,-2.0763740909868456,0.3669542981192443,-0.21049091283020613,7.251799482259789,1.8962316342796581
3.82572629277623,-2.0038560961642475,0.3648493889909422,-0.19152859648740955,7.175125241027803,2.055378016372005
3.8056877318145874,-1.9321048437539696,0.3629341030260681,-0.1709748163236895,7.085537285372078,2.180128023835243
3.7863666833770475,-1.861249470900249,0.3612243548628312,-0.14917353608533707,6.983870393748255,2.2723019979965704
3.7677541886680452,-1.7914107669627664,0.3597326195019778,-0.12645051610537136,6.871031808327726,2.333836571186979
3.7498400809984176,-1.722700448879489,0.3584681143409241,-0.10311215039350158,6.747981637095596,2.3667528355291774
3.732613076509623,-1.655220632508533,0.3574369928369891,-0.0794446220382098,6.615715525695909,2.373127282426893
3.7160608701845375,-1.589063477251574,0.356642546616607,-0.055713349213940874,6.475249442092972,2.355065600628502
3.700170235412022,-1.5243109828306443,0.35608541312446756,-0.03216269320765586,6.327606393648749,2.314679318110205
3.6849271255837155,-1.4610349188941567,0.355763786192391,-0.009015900026553805,6.17380489034488,2.25406520336448
3.670316776394774,-1.399296869990708,0.3556736271921255,0.013524752007090995,6.014848974748464,2.175287298265173
3.656323807694867,-1.3391483802432234,0.3558088747121964,0.035277624989742726,5.851719654487678,2.0803614310341105
3.6429323238924347,-1.2806311836983466,0.35616165096209385,0.05608123930008383,5.685367592659259,1.9712420481531605
3.630126012055451,-1.223777507771754,0.35672246335509467,0.07579365978161544,5.516706932675467,1.8498112034618226
3.6178882369777337,-1.1686104384449993,0.3574803999529108,0.09429177181623366,5.346610154287122,1.7178695472776033
3.6062021325932836,-1.115144336902128,0.35842331767107316,0.1114704672890097,5.175903875336471,1.5771291652969224
3.595050689224262,-1.0633852981487635,0.35953802234396326,0.12724175894197892,5.005365528295034,1.429208124312838
3.5844168362427746,-1.0133316428658132,0.3608104399333831,0.1415338401851073,4.835720851465725,1.2756265882380713
3.5742835198141165,-0.9649744343511559,0.36222577833523417,0.15429010606748803,4.667642141941418,1.1178043729893903
3.564633775470605,-0.9182980129317417,0.36376867939590907,0.16546814979738192,4.5017472213872125,0.9570598123827362
3.5554507953412875,-0.8732805407178696,0.3654233608938829,0.17503874792120927,4.338599067024199,0.7946098095358873
3.5467179899341086,-0.8298945500476277,0.36717374837309497,0.18298484601656814,4.178706059513756,0.6315709497925378
3.538419044433632,-0.7881074894524901,0.36900359683326067,0.1893005555144935,4.022522797471346,0.4689615523621431
3.530537969539107,-0.7478822614777766,0.3708966023884056,0.19399017103811494,3.87045142573484,0.3077045391997486
3.523059146924329,-0.7091777472204281,0.37283650409878677,0.19706721643011244,3.722843421849772,0.14863100155229794
3.5159673694521247,-0.6719493130019304,0.3748071762630879,0.19855352644563543,3.5800017829759265,-0.007515652608285158
3.5092478763221053,-0.6361492951721711,0.37679271152754423,0.19847836991955256,3.442183553907338,-0.1600750831571054
3.5028863833703836,-0.6017274596330977,0.37877749522673976,0.19687761908798151,3.3096026363492093,-0.30846504222066967
3.4968691087740527,-0.5686314332696056,0.3807462714176196,0.1937929686657748,3.182432820114453,-0.4521761400253391
3.4911827944413565,-0.5368071050684611,0.3826842011042773,0.1892712072655214,3.0608109784956494,-0.5907664465505361
3.4858147233906718,-0.5061989952835045,0.38457691317693254,0.18336354280001604,2.9448403726620107,-0.7238560152446288
3.4807527334378365,-0.47675059155688443,0.3864105486049327,0.17612498264756976,2.834594013394212,-0.8511214063344525
3.475985227522268,-0.4484046514229423,0.38817179843140837,0.16761376858422525,2.7301180326330883,-0.9722902781582181
3.4715011810080383,-0.4211034710966114,0.3898479361172506,0.15789086580264305,2.631435021991595,-1.087136105728347
3.467290146297072,-0.39478912087669543,0.39142684477527706,0.14701950474535957,2.538547300369705,-1.1954730766237969
3.463342255088305,-0.3694036478729984,0.39289703982273066,0.13506477397912162,2.451440077932886,-1.2971512055348275
3.459648218609575,-0.3448892470936695,0.3942476875625219,0.12209326192377334,2.3700844887989745,-1.3920517005162
3.456199326138638,-0.3211884022056798,0.3954686201817596,0.10817274491861134,2.29444046968047,-1.480082606390603
3.4529874421165814,-0.2982439975088751,0.3965503476309457,0.0933719188547053,2.2244594663316755,-1.5611747438867776
3.4500050021414927,-0.27599940284555835,0.3974840668194928,0.07776017141583753,2.160086953863192,-1.63527795706258
3.447245008113037,-0.2543985333069264,0.39826166853365114,0.06140739184521173,2.101264760747084,-1.7023576763846646
3.444701022779968,-0.23338588569945556,0.3988757424521033,0.04438381508136509,2.04793318960748,-1.7623918005158328
3.4423671639229734,-0.21290655380338075,0.39931958060291695,0.02675989707620676,2.000032930658711,-1.8153678963747997
3.4402380983849397,-0.19290622449679365,0.399587179573679,0.008606218112458763,1.9575067659211711,-1.8612807143373662
3.4383090361399717,-0.17333115683758193,0.3996732417548036,-0.010006589030914899,1.9203010641338876,-1.9001300134837025
3.436575724571596,-0.15412814619624304,0.3995731758644945,-0.029007889165751925,1.888367067626333,-1.931918690491863
3.4350344431096334,-0.1352444755199797,0.399283096972837,-0.048327076070670556,1.8616619733525623,-1.9566512050545228
3.4336819983544338,-0.11662785578645407,0.3987998262121303,-0.06789358812121579,1.8401498108788301,-1.9743322944705446
3.4325157197965694,-0.09822635767766577,0.39812089033091813,-0.08763691106592124,1.8238021204059254,-1.9849659702496696
3.431533456219793,-0.07998833647360651,0.39724452122025894,-0.10748657076841793,1.812598433958082,-1.988554790081002
3.4307335728550568,-0.06186235213402569,0.39616965551257477,-0.12737211866922796,1.8065265627404783,-1.98509939926881
3.4301149493337166,-0.043797086506620904,0.3948959343258825,-0.14722311266191607,1.8055826934181152,-1.9745983366484015
3.4296769784686503,-0.02574125957243975,0.39342370319926334,-0.16696909602840007,1.8097712957597467,-1.9570481009786407
3.429419565872926,-0.007643546614842282,0.3917540122389793,-0.18653957703818647,1.8191048437819137,-1.9324434747858594
3.4293431304067776,0.010547501822976854,0.38988861646859746,-0.20586401178604508,1.8336033522769999,-1.9007781035300142
3.4294486054250073,0.028883535345746853,0.387829976350737,-0.22487179282134523,1.8532937304737658,-1.8620453287011292
3.4297374407784647,0.047416472650484515,0.38558125842252355,-0.2434922461083565,1.8782089546116754,-1.816239273961454
3.4302116055049696,0.06619856219660127,0.38314633596144,-0.2616546388479711,1.908387061464458,-1.7633561836549154
3.4308735911269355,0.08528243281124584,0.3805297895729603,-0.2792882006845202,1.9438699653701685,-1.7033960128452255
3.431726415455048,0.10472113246494752,0.3777369075661151,-0.29632216081297247,1.9847021021578999,-1.6363642674552912
3.4327736267796976,0.12456815348652651,0.3747736859579854,-0.3126858034875254,2.030928904540695,-1.562274092008293
3.434019308314563,0.14487744253193346,0.3716468279231101,-0.3283085444076083,2.0825951150984765,-1.4811486008675694
3.4354680827398822,0.16570339368291823,0.36836374247903403,-0.343120030416284,2.1397429449203886,-1.3930234467023983
3.4371251166767114,0.18710082313212212,0.3649325421748712,-0.357050264883308,2.2024100883175666,-1.297949617147163
3.4389961249080327,0.20912492401529778,0.3613620395260381,-0.37002976105477964,2.270627606743166,-1.195996447267217
3.4410873741481858,0.23183120008272945,0.3576617419154903,-0.3819897255274518,2.344417698136591,-1.0872548315119708
3.443405686149013,0.25527537706409537,0.3538418446602158,-0.3928622738425715,2.42379137129226,-0.971840614364668
3.445958439919654,0.279513290777018,0.3499132219217901,-0.40258067998621816,2.508746048465252,-0.849898133958501
3.448753572827424,0.3046007512616705,0.3458874151219279,-0.41107966132580315,2.5992631231673617,-0.7216038876200254
3.4517995803400408,0.33059338249334413,0.34177661850866986,-0.4182957002020034,2.6953055038519804,-0.5871702827574538
3.4551055141649742,0.35754643753186394,0.3375936615066498,-0.42416740302957795,2.796815177783726,-0.446849430901816
3.458680978540293,0.38551458930970117,0.33335198747635403,-0.4286358973385961,2.903710832665621,-0.3009369372337896
3.46253612443339,0.4145516976363574,0.32906562850296806,-0.431645266710934,3.01588557635969,-0.14977563281967268
3.4666816414097537,0.4447105533999543,0.3247491758358587,-0.4331430230391307,3.1332047970819006,0.0062408077100125515
3.4711287469437533,0.4760426013707733,0.32041774560546743,-0.4330806149620306,3.25550420757086,0.16666442390830416
3.475889172957461,0.508597643446482,0.31608693945584715,-0.43141397072294757,3.3825881167229612,0.3309897660018675
3.4809751493919254,0.5424235246137116,0.31177279974861766,-0.4281040730629289,3.5142279708761017,0.49865099447546535
3.4863993846380628,0.5775658043224726,0.30749175901798836,-0.4231175631181743,3.650161204170984,0.6690193465089153
3.4921750426812874,0.6140674163641825,0.3032605833868066,-0.41642736965308513,3.790090433137111,0.8414010306323998
3.498315716844929,0.6519683206955535,0.2990963096902758,-0.40801335934676114,3.9336830248255317,1.015035606684254
3.5048354000518844,0.6913051509438088,0.2950161760968082,-0.3978630032799186,4.080571060513317,1.1890949019871822
3.5117484515613224,0.732110861548942,0.291037546064009,-0.38597205426004677,4.2303517084065225,1.3626825067221116
3.519069560176812,0.7744143786330072,0.2871778255214085,-0.37234522919282564,4.3825880091458,1.5348338820174654
3.526813703963142,0.8182402587244653,0.28345437322948025,-0.356996890372651,4.536810067659014,1.7045171036641216
3.5349961065503868,0.8636083594010554,0.27988440432575373,-0.33995171933600976,4.692516634500221,1.8706342531236495
3.5436321901443972,0.9105335257460576,0.2764848871323936,-0.3212453768047733,4.849177049847487,2.032023456250776
3.5527375254018576,0.9590252962445325,0.27327243336434587,-0.3009251422422655,5.006233514459054,2.187461559630357
3.562327778364303,1.009087631389123,0.2702631819419232,-0.27905052664596197,5.163103644803841,2.335667425427188
3.572418654678194,1.0607186678371614,0.2674726766754636,-0.25569385239169007,5.319183264989996,2.475305818976426
3.583025841356566,1.1139105004870613,0.2649157381515467,-0.23094079420192581,5.473849386677998,2.604991859780519
3.5941649463614365,1.1686489943538412,0.2626063302095274,-0.20489087560412061,5.626463330462863,2.7232960068063616
3.6058514363049747,1.2249136276584698,0.2605574214534862,-0.177657915536057,5.776373948695411,2.8287495535149585
3.6181005725815596,1.282677367145424,0.25878084229812565,-0.14937042000090742,5.92292092066191,2.9198506171997107
3.6309273462530136,1.341906576352043,0.2572871380981166,-0.1201719138289103,6.0654381065194105,2.995070620964877
3.644346412016534,1.402560957417237,0.2560854189598275,-0.09022120761926153,6.203256966208339,3.0528612847054277
3.658372021590706,1.4645935270793204,0.2551832068836349,-0.05969259477220725,6.335710073281516,3.091662163024596
3.673017956861499,1.5279506278121355,0.2545862809359128,-0.02877597314196129,6.462134780462222,3.109908791992111
3.6882974631396204,1.5925719756167578,0.2542985212044932,0.002323114777959819,6.581877122743125,3.106041531401946
3.704223182895788,1.658390746844189,0.2543217523522728,0.03338353009197928,6.69429607364656,3.0785152126777
3.72080709036423,1.7253337075806545,0.25465558765319257,0.06416868221875628,6.798768299292215,3.0258097222961404
3.7380604274400366,1.7933213905735768,0.25529727447538014,0.09442677944171768,6.894693581314996,2.9464416636415325
3.755993641345772,1.8622683263867268,0.25624154226979734,0.12389119607813301,6.98150110137477,2.838977243290923
3.7746163246096396,1.9320833374004744,0.2574804542305787,0.15228096851104223,7.0586567947558505,2.702046517315682
3.7939371579836445,2.002669905348033,0.2590032639156891,0.17930143368419904,7.125671986006918,2.534359105565352
3.813963857037125,2.0739266252081023,0.2607962782525311,0.20464502473985255,7.182113513338694,2.3347214333988866
3.834703123289206,2.1457477603414894,0.2628427284999296,0.22799223907384142,7.227615528293111,2.10205548752364
3.856160600892621,2.2180239156244204,0.26512265089066805,0.24901279394907783,7.2618931210135615,1.835418972640396
3.8783408400488653,2.290642846834556,0.2676127788301588,0.2673669836754818,7.284757867768472,1.5340266265752132
3.901247268517211,2.3634904255122406,0.27028644866691365,0.2827072499412339,7.296135325485196,1.1972722930330568
3.924882172772333,2.4364517787670925,0.273113521166326,0.2946799728715645,7.296084408350751,0.8247511645168019
3.949246690560004,2.5094126228506,0.2760603208950416,0.3029274845167325,7.284818475977641,0.4162813973157102
3.97434081678851,2.5822608076103766,0.279089595740209,0.3070902984898896,7.262727845119951,-0.028075927187907163
4.000163424864613,2.6548880860615762,0.28216049872510784,0.3068095392180105,7.230403313707971,-0.5079997548551912
4.026712305725229,2.727192119198656,0.28522859411728796,0.3017295416694586,7.1886601659483365,-1.0228964114693453
4.0539842269172155,2.799078720858139,0.28824588953398256,0.29150057755476516,7.138562022082642,-1.571893044382817
4.081975014125797,2.8704643410789656,0.2911608953095302,0.275781647110937,7.081443820403419,-2.153838999040979
4.110679657536587,2.941278779283,0.29391871178063955,0.2542432571205272,7.01893318869477,-2.7673170680831767
4.140092445329417,3.0114681111699477,0.29646114435184484,0.22657008643969542,6.952969494972504,-3.410666557428429
4.170207126441117,3.0809978061196728,0.2987268452162418,0.19246342086541113,6.8858199806296945,-4.0820200200103365
4.201017104502314,3.1498560059259697,0.30065147942489595,0.15164322066530778,6.820092588322255,-4.7793553060659
4.232515664561573,3.2180569318091923,0.30216791163154905,0.10384966760464877,6.758745413833204,-5.500564273146487
4.264696233879665,3.285644385947524,0.30320640830759554,0.04884402487318389,6.705093141864508,-6.243539108523989
4.29755267773914,3.352695317366169,0.3036948485563274,-0.013591366212055998,6.662811369590263,-7.006276778543426
4.331079630912802,3.4193234310620717,0.3035589348942068,-0.08365413399749025,6.6359403712446925,-7.787001690045215
4.365272865223423,3.4856828347745186,0.3027223935542319,-0.1615241508979424,6.628890598593735,-8.58430630307495
4.400129693571168,3.551971740760456,0.3011071520452525,-0.24736721392869188,6.646453029534207,-9.397309262193044
4.4356494109787725,3.6184362710557982,0.2986334799059656,-0.3413403065506223,6.6938183557396,-10.22583071704538
4.4718337736893305,3.685374454613194,0.29522007684045937,-0.4435986137210761,6.776609933632933,-11.070584987237416
4.508687518235463,3.7531405539495233,0.2907840907032486,-0.5543044635934503,6.900936419350795,-11.933391695570013
4.5462189237749575,3.8221499181430314,0.2852410460673141,-0.6736383805491505,7.073471097685685,-12.817408042547767
4.584440422956388,3.892884629119888,0.2785046622618226,-0.8018124609746282,7.301566153301906,-13.727387105044137
4.623369269247587,3.965900290652907,0.2704865376520763,-0.9390863320250695,7.593411601679598,-14.669969974004035
4.663028272154116,4.041834406669703,0.2610956743318256,-1.0857860317651098,7.958250394965775,-15.6540232276337
4.703446616220813,4.12141691061936,0.2502378140141745,-1.2423262640414467,8.40666342890263,-16.691037629120874
4.744660785327007,4.205483544908387,0.23781455137376004,-1.4092366403326555,8.950940806233625,-17.795608855816944
4.78671562077609,4.294992952970723,0.22372218497043347,-1.587192728890825,9.60555854005828,-18.98602598818339
4.829665550305798,4.391048538371306,0.20785025768152524,-1.777052988772659,10.387782155809647,-20.284997133101452
4.873576035689511,4.494926359929403,0.19007972779379864,-1.9799029601036735,11.318418434988892,-21.72054097917897
4.918525299288805,4.608110544279292,0.1702806981927619,-2.197108369895463,12.422729321452117,-23.327061704488372
4.964606404731598,4.732337837493813,0.14830961449380725,-2.430378986940347,13.731497710938417,-25.146588078321816
5.011929783106536,4.869652814603198,0.12400582462440378,-2.681844867723565,15.282171444707007,-27.23006458573094
5.060626311252569,5.0224745290502675,0.09718737594716813,-2.9541455135808743,17.119861566398143,-29.638365505009105
5.110851056543071,5.193673144714249,0.06764592081135938,-3.2505291686309654,19.297630580982133,-32.44221671485469
5.162787787990213,5.386649450524071,0.03514062912504973,-3.574951335779512,21.874754240007974,-35.71914264894463
5.216654282495454,5.605396992924151,-0.0006088842327453964,-3.9321427622689584,24.910005868852586,-39.54324662428555
5.272708252424695,5.854497051612676,-0.03993031185543498,-4.327575228511814,28.44353280626573,-43.95873133012659
5.331253222940822,6.1389323796753335,-0.08320606414055312,-4.7671625418130805,32.45377021185352,-48.91805101552407
5.392642546737575,6.463470081793869,-0.13087768955868392,-5.256343051968321,36.76249388355442,-54.14686318072451
5.457277247555513,6.831095020629413,-0.18344112007836713,-5.797811683775566,40.841581935336585,-58.870626712798575
5.525588197761808,7.2395108399827794,-0.2414192369161228,-6.386517950903552,43.47015573368454,-61.331235711459044
5.597983306161636,7.674212397319625,-0.3052844164251583,-6.999830308018142,42.30360611701954,-58.18193481259921
5.674725430134832,8.09724845848982,-0.3752827195053397,-7.581649656144134,33.91992269403434,-44.56009982968086
5.755697914719731,8.436447685430164,-0.45109921606678105,-8.027250654440943,15.846862306203919,-16.95983017485476
5.840062391574032,8.594916308492202,-0.5313717226111905,-8.19684895618949,-8.880732988460242,20.322704392312502
5.926011554658954,8.5061089786076,-0.6133402121730853,-7.993621912266365,-30.566278525636097,53.542345064627604
6.01107264444503,8.200446193351238,-0.693276431295749,-7.458198461620089,-41.36461116204635,71.50494590832508
6.0930771063785425,7.7868000817307745,-0.7678584159119499,-6.743149002536838,-42.034123977890054,75.13358779520128
6.17094510719585,7.366458841951874,-0.8352899059373183,-5.991813124584826,-37.50846262418463,71.29570427079044
6.2446096956153685,6.991374215710028,-0.8952080371831665,-5.2788560818769215,-31.509983521905596,65.22113764370792
6.314523437772468,6.676274380490972,-0.9479965980019358,-4.626644705439842,-25.725257665369377,59.3047287686459
6.381286181577378,6.419021803837278,-0.9942630450563342,-4.033597417753383,-20.68467181484103,54.31626066939172
6.445476399615751,6.212175085688868,-1.034599019233868,-3.4904348110594663,-16.450947246488344,50.35819699728406
6.50759815047264,6.047665613223985,-1.0695033673444627,-2.9868528410866255,-12.938119192113575,47.31219266924512
