th1 (rad),w1 (rad/s),th2 (rad),w2 (rad/s)
2.7894731291804304,-1.6994350512337268,4.8995144962641275,-0.3601196989294812
2.772478778668093,-1.716578896425713,4.895913299274833,-0.2974161558049403
2.755312989703836,-1.7354531196203318,4.892939137716783,-0.23604977286588244
2.737958458507633,-1.7560459124112178,4.890578639988124,-0.1761080205520978
2.720397999383521,-1.7783530944501076,4.888817559782604,-0.11768172610416859
2.70261446843902,-1.802378620165765,4.887640742521562,-0.0608655988034437
2.6845906822373626,-1.8281350884099468,4.8870320865335275,-0.005758778081492125
2.666309331353263,-1.855644250837803,4.886974498752712,0.04753460096018182
2.647752888844885,-1.884937512421577,4.8874498447623145,0.0989048341016863
2.6289035137206693,-1.9160564143495364,4.888438893103332,0.1482360812522171
2.609742949577174,-1.949053085490393,4.889921253915854,0.19540582755576344
2.59025241872227,-1.9839906433904169,4.891875312191411,0.24028440177223995
2.570412512288366,-2.0209435191712464,4.8942781562091335,0.28273459169343
2.5502030770966537,-2.059997672445076,4.897105502126068,0.32261140919081865
2.529603100372203,-2.1012506521884275,4.900331616217976,0.3597620732509678
2.5085905938503186,-2.144811447165049,4.903929236950486,0.3940262984368692
2.4871424793786683,-2.1908000547775974,4.907869499934854,0.4252369989359174
2.4652344788308924,-2.239346680107153,4.9121218699242135,0.4532215448399748
2.4428410120298207,-2.2905904575581104,4.916654085372613,0.4778037373265419
2.4199351074542395,-2.3446775665354576,4.921432122745879,0.49880670218073336
2.396488331788885,-2.40175859109038,4.926420189767686,0.5160569349574604
2.372470745877981,-2.4619849534493805,4.931580759117261,0.5293897631239936
2.347850896343487,-2.5255042358733473,4.9368746567485005,0.5386565161291291
2.3225958539847538,-2.5924541988727228,4.942261221909792,0.5437337066986218
2.2966713119960267,-2.6629553126045504,4.947698558976779,0.5445345162930678
2.270041758869981,-2.7371016502557635,4.95314390413971,0.5410228322341298
2.2426707423674235,-2.81495005692856,4.958554132462051,0.5332299884817525
2.214521241798138,-2.896507615424371,4.963886432346868,0.5212741997216973
2.185556165643894,-2.9817175912130773,4.969099174344085,0.5053824330945217
2.1557389897317636,-3.070444259556032,4.97415299867503,0.4859141216140553
2.1250345471362033,-3.1624572984289996,4.979012139891171,0.46338568589931156
2.093409974151913,-3.2574167608465605,4.983645996750163,0.4384943108563055
2.0608358065434476,-3.354859993346103,4.988030939858726,0.412138860201178
2.0272872066099867,-3.4541921991225566,4.992152328460738,0.3854352731524642
1.9927452846187612,-3.5546825913763374,4.996006681192262,0.3597233746792559
1.9571984587049978,-3.6554681680396213,4.999603914939055,0.3365618687692251
1.9206437770246017,-3.755566984252006,5.002969533626747,0.31770850657408534
1.8830881071820815,-3.8539023401524948,5.006146618692488,0.3050831414742998
1.8445490837805565,-3.949338510993302,5.009197450107231,0.3007126600143981
1.8050556986706234,-4.040727550863344,5.012204576707375,0.3066585817856424
1.7646484231619899,-4.126965391720121,5.015271162525231,0.3249303118969892
1.7233787692447886,-4.207054089498897,5.018520465644201,0.35738935229067387
1.6813082283497995,-4.280165838230896,5.022094359167108,0.40565188795863044
1.6385065699674906,-4.345703499085349,5.026150878046694,0.47099867329135653
1.5950495349766372,-4.403352075735535,5.030860864779608,0.5543016875551761
1.5510160142192817,-4.453115958875396,5.0364038816551595,0.6559763410688333
1.5064848546305278,-4.495337918916996,5.042963645065848,0.7759660041302663
1.461531475441358,-4.530697680957886,5.050723305107151,0.913762444353826
1.4162244986317791,-4.560190261432651,5.059860929550689,1.0684618011889129
1.3706225960174525,-4.58508674116372,5.0705455475625785,1.2388516301319457
1.3247717286058154,-4.606882376955234,5.082934063863898,1.4235210567978502
1.278702904836263,-4.627238513443233,5.097169274431876,1.6209838731110713
1.2324305197018306,-4.647925377970655,5.1133791131629875,1.829803915480805
1.185951265922124,-4.670772467832787,5.1316771523177955,2.0487133428283215
1.1392435412437962,-4.6976320510235485,5.152164285746078,2.276717150155502
1.0922672207335606,-4.73035965883048,5.1749314572476335,2.513180812126209
1.0449636241452558,-4.770813784140555,5.200063265368896,2.757901679880787
0.9972554863038502,-4.820875703442268,5.227642282167704,3.011168105942449
0.9490467292694276,-4.882489681270428,5.257753963227128,3.2738129499530073
0.9002218324567233,-4.95772391386839,5.290492092726659,3.5472701025206885
0.8506445933180393,-5.04885341629243,5.325964793751866,3.833644150113523
0.800156059155115,-5.158467546171691,5.364301235253001,4.135804572137034
0.748571383693398,-5.289606763701805,5.405659280974372,4.457517091280011
0.69567531605638,-5.44593505937314,5.450234451887172,4.803625738719578
0.6412159654626486,-5.631954998403043,5.498270709274368,5.180298442609065
0.5848964154786181,-5.853268252416935,5.550073693700458,5.5953421420083735
0.5263637329544488,-6.116867130341326,5.606027115120542,6.05856859828961
0.4651950616510356,-6.431389214181162,5.666612801103438,6.582117559285065
0.400881169509224,-6.807118787544221,5.732433976696289,7.180437470134163
0.3328099816337818,-7.255126685689368,5.80423835139763,7.869077702426134
0.2602587147768881,-7.7839576923540585,5.882929128421892,8.66007424275923
0.1824191378533475,-8.390073476635978,5.969529870849484,9.548629607807847
0.09851840308698773,-9.034801713224974,6.065016166927562,10.48093360409908
0.008170385954737985,-9.602809276672264,6.169825502968553,11.296112009762908
-0.08785770681198465,-9.877045180678358,6.282786623066182,11.691202834297112
-0.18662815861876825,-9.657285349573403,6.399698651409153,11.38710920627775
-0.28320101211450227,-9.014529567126525,6.513569743471931,10.483859285850459
-0.3733463077857675,-8.239590898459172,6.618408336330435,9.387276474264198
-0.4557422167703592,-7.533664222704968,6.712281101073077,8.377232309940995
-0.5310788589974089,-6.949893444530976,6.796053424172487,7.527504740009734
-0.6005777934427187,-6.478750805381963,6.871328471572585,6.8250100277500545
-0.6653653014965383,-6.098054457264647,6.9395785718500855,6.239220752216897
-0.7263458460691847,-5.787710059337976,7.001970779372255,5.742533135502919
-0.7842229466625645,-5.532163293240267,7.059396110727284,5.313639697501486
-0.8395445795949672,-5.319829324550903,7.112532507702299,4.936750637479195
-0.8927428728404763,-5.142091083132776,7.161900014077091,4.600238628278488
-0.944163783671804,-4.9924504325098695,7.207902400359876,4.295506916234354
-0.9940882879969026,-4.865900346858493,7.250857469522219,4.016171156781985
-1.0427472914654876,-4.758476184845703,7.291019181090039,3.757495031471205
-1.0903320533139447,-4.666935167844721,7.328594131404752,3.516007271722782
-1.1370014049923918,-4.588524879884676,7.36375420412198,3.289242741086203
-1.1828866537912386,-4.520814354992193,7.396646631532842,3.075565864945358
-1.2280947973411604,-4.461571304313201,7.427402290182295,2.874045964023499
-1.2727105103842924,-4.408676217747294,7.45614274982253,2.684361291170243
-1.3167972725617654,-4.360068978434867,7.482986362734232,2.506713190470186
-1.360397962346114,-4.313726591788999,7.508053494638935,2.3417352511653147
-1.403535228264004,-4.267671731272615,7.531470847150588,2.190385916966677
-1.44621194557673,-4.2200110044161105,7.5533747063202545,2.0538177449978767
-1.488412055620891,-4.168999235655661,7.573912883770233,1.9332228819223118
-1.5301020479774476,-4.113122119081855,7.5932451125894564,1.8296620349768649
-1.5712332691682662,-4.051185313571777,7.611541732939225,1.7438920031888132
-1.611745122303984,-3.982394868471055,7.628980652971113,1.6762126622664628
-1.6515690709886945,-3.906413249569487,7.645742779593777,1.626355985633475
-1.6906332034843894,-3.8233780914646536,7.662006339450112,1.5934358554049444
-1.7288669843990359,-3.733876965848307,7.677940698004162,1.575968325241548
-1.766205754057519,-3.638879563350409,7.693700381256577,1.5719597497809499
-1.802594549691023,-3.539636601063683,7.7094199787543864,1.57904812846777
-1.8379909157016598,-3.4375603680380418,7.725210460039064,1.594674455469598
-1.8723665193820402,-3.334103788853008,7.74115720459376,1.6162579055767798
-1.9057075572705704,-3.2306531135104777,7.757319783649528,1.6413515003719288
-1.9380140884056751,-3.128444819821174,7.773733298653248,1.6677619446533942
-1.9692985366038869,-3.0285116198138713,7.790410918099782,1.6936261359087459
-1.9995836528020257,-2.9316571414101866,7.807347179458869,1.7174450272455495
-2.0289002242161276,-2.8384549672033144,7.824521629731325,1.738081447165975
-2.057284773888161,-2.74926565129568,7.841902444202985,1.7547315642514556
-2.0847774304011177,-2.6642649382130346,7.859449759845499,1.766880217590725
-2.1114200797832483,-2.5834771867304958,7.877118562021407,1.7742490890442864
-2.137254851650553,-2.5068093908946203,7.89486105291185,1.7767445481268191
-2.162322945559499,-2.434082718737075,7.912628498393118,1.774409674534467
-2.18666377274687,-2.3650598498289077,7.930372595138462,1.7673829157577814
-2.210314371245159,-2.299467441621268,7.94804642429604,1.7558642765319228
-2.233309045661372,-2.2370137666115784,7.965605067061359,1.740088891180231
-2.2556791833274876,-2.1774019816763364,7.983005955973161,1.720307225825971
-2.277453203144251,-2.1203396887646946,8.00020902823142,1.6967708831753892
-2.298656600031898,-2.065545494877521,8.017176737063174,1.6697229273374945
-2.3193120549806734,-2.0127532390637306,8.033873966336548,1.6393917191376044
-2.3394395873713107,-1.9617144691638926,8.050267883527924,1.6059873879413626
-2.3590567320629496,-1.912199650339006,8.066327757407338,1.5697002213970033
-2.37817872856634,-1.8639984883187135,8.082024759621309,1.5307004048124306
-2.396818713449527,-1.8169196617030563,8.097331763669432,1.4891386746179731
-2.4149879100665577,-1.77079018308411,8.112223150415613,1.4451475609209288
-2.432695811897399,-1.7254545485907775,8.126674626024823,1.3988429824736415
-2.449950357383307,-1.6807737884357896,8.14066305584956,1.3503260256897665
-2.466758095267665,-1.6366244952081315,8.154166316106457,1.2996847907974762
-2.4831243402197463,-1.5928978799224074,8.16716316401443,1.2469962260756164
-2.4990533190189703,-1.5494988862764438,8.179633126275187,1.1923278983611691
-2.514548307881735,-1.5063453795215316,8.1915564052588,1.1357396671835887
-2.52961176167695,-1.4633674164624517,8.202913801930634,1.0772852430410316
-2.5442454358415745,-1.4205065963099224,8.213686654361045,1.017013619115767
-2.5584505018046735,-1.3777154875875404,8.223856790552203,0.9549703713877029
-2.572227656680549,-1.3349571234332716,8.23340649426608,0.8911988255969132
-2.5855772279148814,-1.2922045559774151,8.242318482522048,0.8257410915370658
-2.5984992734746557,-1.2494404596932422,8.25057589343742,0.758638966252472
-2.6109936780715883,-1.2066567734638578,8.258162283099944,0.6899347082387847
-2.623060245806227,-1.1638543714170542,8.265061630182332,0.619671684978208
-2.6346987895203977,-1.1210427532246123,8.271258347032115,0.5478948962583408
-2.645909217052644,-1.078239745452296,8.276737295994698,0.4746513758502182
-2.656691614507167,-1.0354712066125287,8.2814838097532,0.3999904743286481
-2.667046326573292,-0.9927707297587854,8.285483714496486,0.3239640261431999
-2.67697403387088,-0.9501793377237479,8.288723354757918,0.246626404500765
-2.6864758272481173,-0.9077451674029546,8.291189618802926,0.1680344681902734
-2.695553278922147,-0.865523140787088,8.29286996348483,0.0882474051431377
-2.7042085103300177,-0.8235746217178052,8.293752437536261,0.007326478247071014
-2.712444256547196,-0.7819670585564514,8.293825702318731,-0.07466532032014293
-2.7202639271327604,-0.7407736140883511,8.29307904911553,-0.15766369923314183
-2.727671663273644,-0.7000727850183809,8.291502412123199,-0.2416035749424792
-2.7346723911238278,-0.6599480143316508,8.289086376373774,-0.32641964706745946
-2.7412718712671444,-0.6204873005865505,8.2858221799031,-0.41204703342869536
-2.74747674427301,-0.5817828088707823,8.281701709568813,-0.4984219554881894
-2.753294572361718,-0.543930488682596,8.276717490013931,-0.5854824646882157
-2.758733877248544,-0.5070297044002765,8.27086266536705,-0.6731692000349722
-2.7638041742925465,-0.4711828842755692,8.2641309733667,-0.7614261672595631
-2.768516003135302,-0.43649519403413106,8.256516711694106,-0.8502015300046835
-2.7728809550756437,-0.403074241190595,8.248014696394058,-0.9394484037252957
-2.7769116974875496,-0.3710298160884246,8.238620212356805,-1.0291256433487104
-2.780621995648434,-0.34047367545461277,8.228328955923319,-1.119198616205142
-2.78402673240298,-0.3115193739138176,8.217136969761267,-1.2096399523032844
-2.787141926142118,-0.284282148431502,8.205040570238234,-1.300430264672968
-2.7899847476264332,-0.25887886004561844,8.192036267591504,-1.3915588332105737
-2.7925735362268895,-0.23542799649514617,8.178120679259399,-1.4830242462190275
-2.794927816191841,-0.21404973845461636,8.163290436797208,-1.5748349946023419
-2.7970683135763874,-0.19486609102932176,8.147542086851185,-1.667010014416196
-2.7990169744866806,-0.178001080947765,8.130871986707023,-1.759579174143387
-2.8007969852961585,-0.1635810184953931,8.11327619496559,-1.852583703599335
-2.8024327954811126,-0.15173482165229865,8.094750357929597,-1.9460765617120688
-2.8039501436976355,-0.1425943981068111,8.075289592312476,-2.0401227404883113
-2.8053760876787037,-0.13629507878759772,8.054888364907592,-2.13479950218906
-2.8067390384665796,-0.13297609424841547,8.033540369885701,-2.2301965460033837
-2.808068799409064,-0.1327810825969422,8.011238404425667,-2.3264160992297365
-2.809396610235033,-0.13585861460993137,7.98797424343337,-2.4235729260446486
-2.8107551963811326,-0.1423627181294877,7.963738514172923,-2.5217942442473045
-2.8121788235624274,-0.15245337967663353,7.93852057173045,-2.621219536796597
-2.8137033573591936,-0.1662969963140282,7.912308376362484,-2.7220002403802805
-2.8153663273223337,-0.184066744984929,7.885088373958681,-2.8242992875447532
-2.817206994772183,-0.20594282967892732,7.856845381083233,-2.9282904719388294
-2.819266423068972,-0.23211255864614985,7.827562476363845,-3.0341575978613853
-2.8215875486554336,-0.2627701943232134,7.797220900385231,-3.1420933654441154
-2.8242152505986655,-0.29811650749177976,7.765799966730789,-3.2522979313763836
-2.8271964156735834,-0.33835795436186583,7.7332769874170255,-3.364977072084249
-2.830579995217202,-0.38370538075009464,7.699627216696183,-3.480339861813634
-2.834417049024703,-0.434372141456626,7.664823818078047,-3.5985957624111196
-2.8387607704392694,-0.4905715057216409,7.628837860453936,-3.719951005271084
-2.843666485496486,-0.5525132020015283,7.591638350401226,-3.8446041298153655
-2.8491916175165013,-0.6203989384789236,7.553192309103072,-3.972740528388058
-2.8553956069012907,-0.6944167216135578,7.513464903819192,-4.104525836659468
-2.862339774117426,-0.7747337864357599,7.4724196454525975,-4.240098004492592
-2.8700871119817837,-0.861487953067717,7.430018665407672,-4.3795578887682485
-2.878701991512461,-0.9547772393279228,7.386223086519989,-4.522958232187516
-2.88824976390574,-1.0546475958813153,7.340993504198114,-4.670290937219267
-2.898796239864553,-1.1610786963187545,7.294290594825921,-4.8214726200372695
-2.9104070268277407,-1.2739678189686536,7.246075868625549,-4.97632854422792
-2.923146705017427,-1.3931120096500957,7.1963125831832695,-5.134575196875187
-2.9370778251139282,-1.5181889232654961,7.144966831214518,-5.2958019872113535
-2.9522597143465834,-1.6487370117881834,7.092008811342405,-5.459452822888289
-2.9687470844644652,-1.7841360544451272,7.037414283113522,-5.624808645678049
-2.9865884450089166,-1.9235893988666672,6.9811661966567415,-5.790972369312457
-3.0058243389975834,-2.0661096694747476,6.923256472963617,-5.956858022499856
-3.0264854356923307,-2.2105100507047375,6.863687892738619,-6.121186204657367
-3.048590536199378,-2.3554034950234857,6.802476030692045,-6.282488134341636
-3.072144571149613,-2.499212247865253,6.739651149348629,-6.439120518885652
-3.097136693628266,-2.64018982530341,6.675259944159772,-6.589293104511808
-3.1235385918813,-2.776456941235507,6.609367013114654,-6.731110006520661
-3.151303161293655,-2.9060518181702117,6.542055913049447,-6.862624748166575
-3.180363679475357,-3.0269938640442025,6.473429665567782,-6.98190741671162
-3.210633618115799,-3.1373579916759704,6.403610591400666,-7.087120641396175
-3.242007198032559,-3.2353551357193058,6.332739384986704,-7.176599474761132
-3.2743607493897517,-3.3194130965737436,6.2609733902390925,-7.2489290387062235
-3.307554880355489,-3.3882510336541656,6.1884840998520305,-7.303013287555443
-3.3414373906920307,-3.440940987077175,6.115453966976476,-7.338128644382737
-3.3758468005628024,-3.4769508144857864,6.042072680532649,-7.353957604718474
-3.4106163087076604,-3.496164773487864,5.968533104485465,-7.350599484625099
-3.445577956442539,-3.4988803582743664,5.895027109639214,-7.328557956765022
-3.4805667600252828,-3.4857824971376052,5.821741530071564,-7.288707429101928
-3.515424584996659,-3.457898416772598,5.7488544557805445,-7.232242275829869
-3.550003569164385,-3.4165380577580082,5.676532033022246,-7.1606141641407675
-3.584168949741965,-3.363225721918641,5.604925891380838,-7.075463148757469
-3.6178012069611514,-3.299628653865483,5.534171259893263,-6.978547909922799
-3.650797493499806,-3.227487645840759,5.464385780794035,-6.871679681042607
-3.683072369958214,-3.1485537195173285,5.395668983983609,-6.756663281800502
-3.714557907153387,-3.0645337058639304,5.328102351165604,-6.635247456895108
-3.7452032442120267,-2.9770463088361683,5.261749876596652,-6.5090855841980355
-3.774973707300388,-2.8875891409336703,5.196659020754672,-6.379706862086774
-3.803849598709725,-2.7975163405963106,5.132861952133805,-6.248497361173466
-3.831824762115688,-2.708025753803391,5.07037697852207,-6.116689835628157
-3.858905019653722,-2.620154277454083,5.009210080165788,-5.985360911429651
-3.8851065624282626,-2.534779787843689,4.949356471051492,-5.855434166112429
-3.9104543603066997,-2.452628069009614,4.890802129390368,-5.727687644534661
-3.934980640996796,-2.374283265034564,4.833525252945021,-5.6027644764610445
-3.9587234736471415,-2.3002005630845854,4.77749760818041,-5.481185437714948
-3.9817254792779875,-2.2307200327067105,4.722685753803261,-5.363362497437026
-4.0040326796050545,-2.1660807731379847,4.66905212882889,-5.249612597082872
-4.025693487336435,-2.1064347342469896,4.6165560028580614,-5.140171096725259
-4.046757834678905,-2.0518597661332736,4.565154291890809,-5.035204491639473
-4.067276432340238,-2.002371611453881,4.514802246974415,-4.934822142586633
-4.087300148454776,-1.9579346818974974,4.465454025548548,-4.839086875830955
-4.106879495273751,-1.9184715575898454,4.417063156790239,-4.74802439532177
-4.126064210849649,-1.8838712190591238,4.369582912837021,-4.661631512658561
-4.144902923040241,-1.8539960699892726,4.322966597710436,-4.579883244115729
-4.163442883740133,-1.8286878397442594,4.2771677652692786,-4.502738851926167
-4.181729762137576,-1.8077724716713997,4.232140376750017,-4.430146922768006
-4.19980748685429,-1.7910641100824274,4.1878389075223375,-4.362049583098148
-4.217718127955115,-1.7783682985584188,4.144218411691356,-4.298385951251722
-4.235501810940699,-1.7694844972145267,4.1012345521788385,-4.2390949221868786
-4.253196655912844,-1.764208018626342,4.05884360295697,-4.1841173740339395
-4.270838736099107,-1.762331472621,4.017002429216631,-4.133397877430162
-4.288462050825317,-1.7636458000436435,3.9756684504423294,-4.086885979869728
-4.3060985088257535,-1.7679409655875993,3.934799590643632,-4.044537128585075
-4.323777918481629,-1.7750063702546321,3.8943542193577816,-4.006313287203618
-4.341527982184176,-1.78463103524701,3.8542910864857456,-3.972183293840562
-4.359374292536646,-1.7966036012192284,3.81456925354734,-3.942123001528209
-4.377340328548839,-1.8107121798821812,3.775148023532058,-3.9161152360007696
-4.395447450347661,-1.8267440889479867,3.73598687117205,-3.894149600854313
-4.413714891237142,-1.8444854962860155,3.697045375163507,-3.8762221559541907
