th1 (rad),w1 (rad/s),th2 (rad),w2 (rad/s),a1 (rad/s^2),a2 (rad/s^2)
1.8081777520903883,-2.7364646757823086,4.025570563997675,0.19934806062947338,-11.028452859940753,-5.04298526875786
1.7808131053325653,-2.846749204381716,4.02756404460397,0.14891820794189478,-11.41290475740242,-5.872001191146538
1.752345613288748,-2.96087825195574,4.029053226683389,0.0901981960304294,-11.822627667866396,-6.741766365391188
1.7227368307691906,-3.079104528634404,4.029955208643693,0.02278053237651753,-12.256176530164064,-7.650726444897579
1.6919457854828466,-3.2016662939360447,4.0301830139674575,-0.05372673207245826,-12.711233318801954,-8.596055268884838
1.6599291225434862,-3.3287786271240645,4.029645746646733,-0.13968728476130665,-13.184443731385791,-9.57336069122347
1.6266413362722456,-3.4606230644379226,4.02824887379912,-0.23542089167354135,-13.671248834534651,-10.5763703212953
1.5920351056278663,-3.597335552783269,4.025894664882385,-0.34118459488649433,-14.16572129387098,-11.596610961365865
1.5560617501000336,-3.738992765721979,4.02248281893352,-0.457150704500153,-14.660419433088256,-12.62310187261941
1.5186718224428137,-3.8855969600528613,4.017911311888518,-0.5833817232263471,-15.146276017484773,-13.642088859444689
1.4798158528422851,-4.037059720227709,4.012077494656255,-0.719802611820794,-15.612541759607911,-14.636852703988215
1.4394452556400081,-4.193185137823788,4.004879468538047,-0.8661711388606761,-16.04680529792376,-15.587630479861502
1.3975134042617703,-4.353653190803025,3.9962177571494406,-1.0220474436592912,-16.435110845411064,-16.471690143998835
1.35397687235374,-4.518004299257136,3.9859972827128476,-1.1867643450992795,-16.762190884958432,-17.263595815504843
1.3087968293611687,-4.68562620810672,3.9741296392618546,-1.359400303254328,-17.01182350302757,-17.9356917868326
1.2619405672801014,-4.855744443136996,3.960535636229311,-1.5387572211226541,-17.167312098140858,-18.458816811280425
1.2133831228487315,-5.027417564118404,3.9451480640180847,-1.7233453892354584,-17.212070100854994,-18.80323713971561
1.1631089472075475,-5.199538265126955,3.9279146101257303,-1.9113777606326146,-17.130276949894384,-18.93975948972049
1.111113564556278,-5.370841034625898,3.9088008325194044,-2.1007753555298194,-16.907556880890752,-18.840957826444317
1.057405154210019,-5.539916603434806,3.887793078964106,-2.2891849337942625,-16.531622659594984,-18.482426051119873
1.0020059881756709,-5.705232830030756,3.8649012296261636,-2.474009194305461,-15.99282549757779,-17.843958124698013
0.9449536598753633,-5.865161085006534,3.840161137683109,-2.6524487755524415,-15.284561957362428,-16.91056204430975
0.886302049025298,-6.018006704580158,3.8136366499275844,-2.821554395995539,-14.403508401096898,-15.673235661993907
0.8261219819794964,-6.162041788591127,3.7854211059676293,-2.978286752615478,-13.34968061843667,-14.12946785895136
0.764501564093585,-6.295538594775493,3.7556382384414744,-3.119581431204992,-12.126345706869467,-12.283471555426656
0.7015461781458301,-6.416802051844188,3.7244424241294243,-3.2424161467592585,-10.739839083474148,-10.146196505097626
0.6373781576273883,-6.5242004426789295,3.692018262661832,-3.343878111810235,-9.199356136488237,-7.735200538562139
0.572136153200599,-6.616194004043812,3.6585794815437294,-3.4212301171958566,-7.516791635323744,-5.0744704820835285
0.5059742131601609,-6.691361920397049,3.6243671803717707,-3.471974822016692,-5.706689115286761,-2.1942743619964475
0.4390605939561904,-6.748428811549917,3.5896474321516036,-3.4939175656366563,-3.7863378237846814,0.8689053876126581
0.37157630584069123,-6.786292189787764,3.5547082564952373,-3.4852285117605297,-1.776018983783046,4.072358615734127
0.3037133839428136,-6.8040523796255945,3.519855971377632,-3.4445049256031885,0.3006401833054939,7.367117669469406
0.23567286014655767,-6.80104597779254,3.4854109221216,-3.3708337489084945,2.4162922476847246,10.698040244267139
0.16766240036863228,-6.776883055315692,3.451702584632515,-3.2638533464658233,4.53960519797355,14.004190105444469
0.09989356981547536,-6.731487003335957,3.4190640511678567,-3.123811445411379,6.635268408717385,17.219732734985854
0.03257869978211579,-6.665134319248783,3.387825936713743,-2.9516141180615203,8.664437267131888,20.2755536715771
-0.03407264341037204,-6.578489946577464,3.3583097955331276,-2.748858581345749,10.585758326648602,23.101741517434874
-0.09985754287614668,-6.472632363310978,3.33082120971967,-2.5178411661714004,12.357047302551914,25.630947474998813
-0.16458386650925644,-6.3490618902854585,3.305642798057956,-2.2615316914214123,13.937579239338843,27.80244687906165
-0.228074485412111,-6.20968609789207,3.283027481143742,-1.9835072226307957,15.290807831740583,29.566516270946508
-0.2901713463910317,-6.056778019574664,3.263192408917434,-1.6878420599213306,16.38719008738113,30.888555772263615
-0.35073912658677836,-5.892906118700853,3.2463139883182204,-1.3789565021986945,17.206696110912322,31.752295903725408
-0.4096681877737869,-5.72083915759173,3.2325244232962334,-1.0614335431614403,17.740572858896748,32.16148376791384
-0.46687657934970417,-5.5434334290027625,3.221910087864619,-0.7398187054823019,17.992026135439236,32.139660023857495
-0.5223109136397318,-5.36351316764837,3.214511900809796,-0.4184221052437269,17.975673274254824,31.727974422301152
-0.5759460453162155,-5.183756434905821,3.2103276797573588,-0.10114236102071539,17.715851389179623,30.98135476671777
-0.6277836096652737,-5.006597921014025,3.2093162561471518,0.20867118664646234,17.244075977560634,29.96363650226186
-0.6778495888754139,-4.834157161238419,3.2114029680136165,0.5083075516690809,16.596073505738143,28.7423978904385
-0.7261911604877981,-4.668196426181038,3.216486043530307,0.795731530573466,15.808831850924479,27.384205242589058
-0.7728731247496085,-4.510108107671793,3.2244433588360417,1.0695735829993567,14.91803480237657,25.950789900665477
-0.8179742058263264,-4.360927759648027,3.235139094666035,1.3290814820060115,13.956110006650334,24.496426602236852
-0.8615834834228067,-4.221366659581524,3.248429909486095,1.57404574802838,12.9509709849635,23.066538343086602
-0.9037971500186219,-4.0918569497318895,3.264170366966379,1.804711131459246,11.925410812053338,21.697369883182372
-0.9447157195159408,-3.972602841611356,3.2822174782809714,2.0216848302910697,10.89702681600495,20.416471705711764
-0.9844417479320544,-3.8636325734513064,3.302434326583882,2.2258495473481874,9.878523427199458,19.243711581920397
-1.0230780736665674,-3.764847339179312,3.3246928220573637,2.4182866631673914,8.878243805827342,18.192559411416735
-1.0607265470583607,-3.6760649011210385,3.348875688689038,2.6002122572815587,7.900805849554465,17.27144696146409
-1.0974871960695711,-3.5970568426254936,3.3748778112618534,2.7729267268961997,6.947751783616578,16.485066465554453
-1.1334577644958261,-3.5275793247893277,3.4026070785308153,2.9377773915517444,6.018153882045443,15.835527316446328
-1.1687335577437195,-3.467397785968873,3.431984852446333,3.0961326647162077,5.109147328070365,15.323331898234107
-1.2034075356034082,-3.4163063126881696,3.4629461790934952,3.249365983698549,4.216383531160698,14.948158422008026
-1.2375705987302899,-3.3741424773765627,3.495439838930481,3.398847567918629,3.334414329230269,14.709451442754604
-1.2713120235040556,-3.34079833408426,3.529428314609667,3.545942082346175,2.457031662577509,14.606821105956458
-1.304720006844898,-3.316228017458485,3.5648877354331288,3.6920102934057395,1.5776015531656031,14.640240892347784
-1.3378822870194829,-3.300452001926829,3.6018078383671863,3.8384127023292174,0.6894493274955533,14.810009772777462
-1.3708868070387512,-3.2935575086518734,3.6401919653904784,3.986512800056992,-0.2136202410747923,15.116404854571487
-1.40382238212527,-3.295693711062621,3.6800570933910484,4.137676848602707,-1.136542552974723,15.558888243753655
-1.4367793192358962,-3.3070591365923683,3.7214338618770753,4.293265731040243,-2.0817625592550018,16.134636862187918
-1.46984991060182,-3.327876762184918,3.7643665191874778,4.454612099662122,-3.0472667473340276,16.836023654293385
-1.503128678223669,-3.3583494296582583,3.808912640184099,4.622972336205056,-4.023454264788546,17.646483180944248
-1.5367121725202515,-3.398583972306144,3.8551423635461495,4.7994371680144985,-4.988257155443961,18.53395502136439
-1.570698012243313,-3.4484665438605835,3.9031367352262945,4.984776718228143,-5.899782414611168,19.440894694205
-1.6051826776819187,-3.507464368006695,3.952984502408576,5.179185665170193,-6.685831476835105,20.269935144311766
-1.6402573213619855,-3.5743226827750463,4.004776359060278,5.38188501661331,-7.230434980399231,20.865333362624746
-1.676000548189736,-3.6466270325790386,4.058595209226411,5.590538350239558,-7.360003543104924,20.99370790645711
-1.7124668185155263,-3.7202270680100877,4.114500592728806,5.800475429304129,-6.837308817216066,20.33531372904583
-1.7496690891956272,-3.788600156182248,4.172505347021847,6.003828566594587,-5.380937126213342,18.510156479774214
-1.7875550907574498,-3.8424095274443815,4.2325436326877925,6.188930131392329,-2.736312582031451,15.174997887722144
-1.8259791860318937,-3.869772653264696,4.2944329340017156,6.340680110269551,1.1860823325640428,10.2128180743426
-1.8646769125645406,-3.8579118299390553,4.357839735104411,6.442808291012977,6.145988836781042,3.958195710665388
-1.9032560308639312,-3.7964519415712448,4.422267818014541,6.48239024811963,11.512183654388327,-2.721461838717658
-1.9412205502796438,-3.6813301050273615,4.487091720495737,6.455175629732453,16.4402764170372,-8.675008608245946
-1.9780338513299174,-3.5169273408569897,4.551643476793061,6.368425543649994,20.233947196326962,-12.966727536835554
-2.0132031247384874,-3.31458786889372,4.615327732229561,6.2387582682816385,22.618544591607456,-15.248406438488354
-2.0463490034274248,-3.0884024229776457,4.677715314912377,6.086274203896755,23.734075900682356,-15.740733120422625
-2.077233027657201,-2.851061663970822,4.7385780569513445,5.928866872692529,23.934255380354834,-14.949819143088803
-2.1057436442969095,-2.6117191101672734,4.797866725678269,5.779368681261641,23.589360157072417,-13.394468866214936
-2.1318608353985824,-2.375825508596549,4.855660412490886,5.645423992599492,22.987595201866963,-11.472917168480679
-2.155619090484548,-2.1459495565778797,4.912114652416881,5.530694820914685,22.31835588500414,-9.4432077723869
-2.177078586050327,-1.9227659977278382,4.967421600626028,5.436262743190816,21.691817680048214,-7.452842609062093
-2.1963062460276053,-1.705847820927356,5.021784228057936,5.361734317100195,21.164933435671742,-5.576219606693193
-2.213364724236879,-1.4941984865706386,5.075401571228938,5.305972121033263,20.762356859376975,-3.844318790487985
-2.228306709102585,-1.2865749179768688,5.128461292439271,5.267528933128383,20.49047503399848,-2.264462523754502
-2.2411724582823536,-1.081670167636884,5.181136581770555,5.244884307890838,20.345955345163325,-0.8323166103389198
-2.2519891599587223,-0.8782106141852508,5.233585424849463,5.2365611417874485,20.32062864576249,0.46122705488794336
-2.260771266100575,-0.6750043277276259,5.285951036267337,5.241173412336328,20.404123832059376,1.6262723466791016
-2.2675213093778512,-0.47096308940703213,5.338362770390701,5.257436135803118,20.58518697577212,2.6719334933000116
-2.2722309402719216,-0.26511121964931095,5.390937131748732,5.284155470736119,20.852255465914595,3.6053508959395346
-2.274882052468415,-0.05658866499016499,5.443778686456093,5.320208979695514,21.193622769081667,4.4312517326516145
-2.2754479391183167,0.1553475627006517,5.496980776253048,5.3645214970220305,21.59738790933709,5.1518011179591205
-2.27389446349131,0.3713214417940226,5.550625991223269,5.416039508201622,22.05130203665602,5.766607772038676
-2.27018124907337,0.5918344621605828,5.604786386305285,5.4737055859220085,22.542578734890554,6.2728161415240535
-2.264262904451764,0.8172602495094883,5.659523442164505,5.536433747337249,23.057709966584337,6.665255700736861
-2.2560903019566694,1.0478373491753317,5.714887779637878,5.603086304344617,23.5823166449626,6.936640021394604
-2.245611928464916,1.2836605156249576,5.770918642681324,5.672452704558563,24.10105627922303,7.077820006275339
-2.2327753233086662,1.524671078417188,5.82764316972691,5.743230904621317,24.59760658364201,7.078101118812127
-2.2175286125244944,1.770647144253608,5.885075478773123,5.814011915809438,25.05474120066792,6.925635363242657
-2.1998221410819583,2.021194556260287,5.943215597931218,5.8832682694418645,25.45451030139682,6.607896066577532
-2.179610195519355,2.2757396592742554,6.002048280625637,5.94934723010764,25.77853382832623,6.112237664747352
-2.1568527989266126,2.533524997557518,6.061541752926713,6.010469606755113,26.00840802591407,5.42653417326959
-2.1315175489510376,2.7936090778166585,6.121646448994264,6.064734948487809,26.126216670488986,4.539879584256819
-2.103581458172871,3.0548712445215482,6.182293798479142,6.110133744330377,26.115127671735287,3.4433223022937125
-2.0730327457276556,3.316022521238901,6.243395135922445,6.144566967353314,25.960044725312837,2.1305956473992547
-2.039872520515267,3.5756229684920298,6.304840805595979,6.1658729238273065,25.648274259863793,0.5987995080059682
-2.0041162908303467,3.8321057110906676,6.366499534834252,6.171860918907366,25.170162140613275,-1.15101349885619
-1.96579523371944,4.0838073324968,6.428218144023325,6.160350783918804,24.5196543908615,-3.1133890041369745
-1.924957160394472,4.329003876405415,6.489821651862513,6.129216893877434,23.694742728448993,-5.278188628444912
-1.8816671216304177,4.565951303689905,6.551113820801287,6.076435007592985,22.697768797711802,-7.630486520916933
-1.8360076085935186,4.792928991667023,6.611878170877217,6.000130142383815,21.535578720095426,-10.150636871147862
-1.7880783186768483,5.008284778867977,6.671879472301056,5.898623773672337,20.219538471309516,-12.814487261913975
-1.7379954708881686,5.210480163581072,6.730865710037779,5.770478901053197,18.765436078888204,-15.593703259196142
-1.6858906692523579,5.3981345243699534,6.788570499048311,5.614541868461235,17.193304244991637,-18.456172301467298
-1.6319093240086584,5.57006756681987,6.844715917732923,5.429980145446563,15.527193664185255,-21.366471473402108
-1.5762086483404596,5.725339503461723,6.899015719187389,5.216315430712542,13.794912593643144,-24.28641202340249
-1.5189552533058424,5.863288629398155,6.951178873494515,4.9734513104785165,12.027725094286508,-27.175707121350882
-1.4603223670118608,5.98356588034102,7.0009133865993,4.701694239265008,10.259975066138862,-29.992838357622613
-1.4004867082084507,6.086165631002409,7.04793032899195,4.401765855688781,8.528584313520911,-32.69620918953164
-1.3396250518984265,6.171451474137618,7.091947987548838,4.074803763793465,6.872369294286604,-35.245659670832566
-1.2779105371570503,6.240175167080484,7.132696025186772,3.7223471670851396,5.331139543008733,-37.6043711769674
-1.2155087854862454,6.293486562510572,7.169919496857624,3.3463034553154656,3.9445826121941114,-39.74111581597726
-1.1525739198611398,6.332932388632513,7.203382531410778,2.948892297155693,2.751000397794606,-41.63271647761438
-1.0892445959748147,6.36044239261046,7.232871454382335,2.532565132379549,1.7860274801211808,-43.266502775432535
-1.02564017204871,6.378302667411671,7.25819710570613,2.099900104625224,1.0815165886265696,-44.6425021654289
-0.9618571453745933,6.389117833297937,7.279196106752383,1.6534750829709348,0.6648028169039097,-45.775116601553144
-0.8979659670416139,6.395765861466976,7.295730857582092,1.1957239169554033,0.5585465119717063,-46.69411234326212
-0.8340083084269442,6.401351326586693,7.307688096751646,0.728782793522782,0.78130565253982,-47.44488437399404
-0.7699947951610773,6.409164383112091,7.314975924686874,0.2543339497828415,1.3489146483308336,-48.088119861167165
-0.7059031513299564,6.422653529595399,7.317519264184702,-0.22654724882883015,2.276667904646831,-48.699139193359656
-0.6416766160340024,6.445420208641868,7.315253791696414,-0.7135386407624267,3.582241915351522,-49.367299741723556
-0.5772224139475837,6.481242627795383,7.30811840528879,-1.2072116381796623,5.289244956879171,-50.19587259393277
-0.5124099876696299,6.534135077364175,7.296046288906994,-1.70917036411899,7.4312375048096335,-51.30270809259649
-0.4470686368959881,6.608447452412271,7.278954585265804,-2.222197445044955,10.055947900029613,-52.82171517763081
-0.3809841623718654,6.709006931412567,7.256732610815355,-2.750414596821263,13.229043000266975,-54.90449075018378
-0.31389409305773974,6.841297361415237,7.229228464847142,-3.299459504323101,17.035797758775633,-57.71982526913219
-0.24548111944358736,7.011655339002994,7.196233869803911,-3.876657757014423,21.57638746597598,-61.444977516945954
-0.17536456605355744,7.2274192136627535,7.1574672922337665,-4.491107532183882,26.94405814554726,-66.23343052846951
-0.10309037391692989,7.496859795118226,7.112556216911928,-5.153441837468577,33.160040913986016,-72.12221286274863
-0.028121775965747636,7.828460204258087,7.061021798537242,-5.874663966096064,40.00475233410963,-78.79378466085218
0.05016282607683323,8.228507727599183,7.002275158876281,-6.662601812704585,46.62029088782567,-85.01725932499474
0.13244790335282508,8.69471063647744,6.935649140749235,-7.5127744059545325,50.701041275284005,-87.51315168658897
0.21939500971759948,9.20172104923028,6.860521396689689,-8.387905922820423,47.36407234717882,-79.37535050122476
0.3114122202099023,9.675361772702068,6.776642337461485,-9.18165942783267,29.52211899307795,-50.62400152970424
0.40816583793692296,9.970582962632848,6.684825743183159,-9.687899443129712,-5.2096455958738,2.027134916293392
0.5078716675632514,9.91848650667411,6.587946748751861,-9.667628093966778,-43.18379411094433,59.199609204156175
0.6070565326299925,9.486648565564668,6.4912704678121935,-9.075632001925216,-63.88663209807018,91.80549886574792
0.7019230182856392,8.847782244583966,6.400514147792942,-8.157577013267737,-64.73511900769098,96.03923991388943
0.7904008407314789,8.200431054507057,6.318938377660264,-7.197184614128843,-56.29841496873472,86.73021652659476
0.8724051512765494,7.63744690481971,6.246966531518976,-6.329882448862895,-46.3093466254535,74.83023114491553
0.9487796203247465,7.174353438565174,6.183667707030347,-5.58158013741374,-37.506239852367564,64.29482138096147
1.0205231547103983,6.799291040041499,6.127851905656209,-4.938631923604125,-30.357228911736886,55.86770929534399
1.0885160651108134,6.49571875092413,6.078465586420168,-4.379954830650685,-24.665606821701044,49.33034714197111
1.1534732526200548,6.24906268270712,6.034666038113661,-3.8866513592309735,-20.124813374007744,44.28726431428924
1.2159638794471261,6.047814548967042,5.995799524521352,-3.4437787160880813,-16.466560678003145,40.38044457923206
1.2764420249367965,5.8831489421870105,5.961361737360471,-3.039974270295761,-13.484859248224746,37.32772238080677
1.3352735143586667,5.748300349704763,5.930961994657513,-2.666697046487693,-11.02822130470651,34.914984054470686
1.3927565178557144,5.638018136657698,5.904295024192636,-2.317547205942986,-8.986787635871687,32.980267535665625
1.4491366992222914,5.548150260298981,5.881119552133206,-1.9877445305863297,-7.281106924689517,31.399644825574896
1.5046182018252812,5.475339191052086,5.861242106827342,-1.6737480823305808,-5.8535931499287495,30.076623465151698
1.559371593735802,5.416803259552799,5.844504626004037,-1.3729818476790638,-4.662264403776102,28.934696224980208
1.61353962633133,5.370180615515038,5.830774807527246,-1.0836348854292617,-3.6761627125739307,27.912299288266983
1.6672414324864804,5.333418988389298,5.8199384586729535,-0.8045118925465918,-2.871955977141601,26.95951472212029
1.7205756223703734,5.304699428617883,5.8118933397474875,-0.5349167453253889,-2.2313690349271496,26.035999461561996
1.7736226166565523,5.282385738268611,5.806544172294234,-0.2745567507097689,-1.7392150063975576,25.10974614645442
1.8264464740392383,5.264993588204636,5.803798604787136,-0.023459289245224724,-1.3818896923027693,24.156369003000837
1.8790964099212846,5.251174691281608,5.803564011894684,0.21810440078478366,-1.1462534481638873,23.158670272249804
1.9316081568341006,5.2397121567999685,5.805745055902532,0.4496911035072817,-1.0188612760150073,22.106292249832105
