th1 (rad),w1 (rad/s),th2 (rad),w2 (rad/s),a1 (rad/s^2),a2 (rad/s^2)
0.5178924560246012,2.5749920208904893,5.216597726896309,-0.9479839662628935,-5.197207697990712,15.139307032562304
0.5436423762335061,2.5230199439105823,5.20711788723368,-0.7965908959372705,-5.025733296575498,14.737243206564962
0.568872575672612,2.472762610944827,5.1991519782743065,-0.6492184638716209,-4.900491783188473,14.353775242412398
0.5936002017820602,2.4237576931129423,5.19265979363559,-0.5056807114474968,-4.817986721358313,13.98338928778273
0.6178377787131896,2.3755778258993594,5.1876029865211155,-0.3658468185696695,-4.775046350619674,13.62145054381461
0.6415935569721831,2.3278273623931627,5.1839445183354185,-0.22963231313152338,-4.768743265542704,13.264121248698043
0.6648718305961148,2.280139929737736,5.181648195204104,-0.09699110064454294,-4.796328889213666,12.908290274175961
0.6876732298934921,2.232176640845599,5.180678284197658,0.03209180209721668,-4.855181465015378,12.551511681843182
0.7099949963019481,2.1836248261954454,5.18099920221863,0.15760691891564851,-4.942766201202183,12.19194984844529
0.7318312445639025,2.1341971641834236,5.182575271407787,0.2795264174001014,-5.056606196704235,11.82832917086556
0.7531732162057367,2.083631102216381,5.185370535581788,0.397809709108757,-5.194262804064013,11.459886807985027
0.7740095272279005,2.031688474175741,5.189348632672875,0.5124085771886073,-5.353324126250088,11.086327353734422
0.7943264119696579,1.97815523291324,5.194472718444761,0.6232718507259516,-5.531400393115498,10.707778731579026
0.8141079642987903,1.9228412289820849,5.2007054369520205,0.7303496380417418,-5.726125021803201,10.324748937151975
0.8333363765886111,1.8655799787640528,5.2080089333324375,0.8335971274132615,-5.935160236497126,9.938083523635754
0.8519921763762517,1.8062283763990816,5.21634490460657,0.9329779626496191,-6.15620620873615,9.548923921424016
0.8700544601402425,1.74466631431172,5.225674684233066,1.0284672018638592,-6.387012780134378,9.158666812623153
0.8875011232833596,1.6807961865103762,5.235959356251705,1.1200538699900908,-6.625392942523147,8.76892484945041
0.9043090851484634,1.6145422570851446,5.247159894951606,1.2077431184845948,-6.869237371977865,8.381489024150742
0.9204545077193149,1.545849883365366,5.259237326136452,1.2915580087261023,-7.11652943733264,7.998292979304017
0.9359130065529686,1.4746845889920397,5.272152906223713,1.3715409385191424,-7.365360224570757,7.621379504686515
0.950659852442889,1.4010309867463322,5.285868315608904,1.4477547335660075,-7.613943230252513,7.2528694130529505
0.9646701623103523,1.3248915544438071,5.300345862944564,1.520283427696537,-7.860628475359515,6.8949329336190335
0.9779190778547904,1.246285269690212,5.315548697221529,1.5892327570327272,-8.103915872679229,6.5497637175699674
0.9903819305516925,1.1652461109634198,5.331441024791856,1.6547303942084268,-8.342467745097983,6.219555520648475
1.0020343916613268,1.0818214335124399,5.3479883287339405,1.7169259494149116,-8.575120439783754,5.906481616837129
1.012852605996451,0.9960702291146023,5.365157588228089,1.775990765583283,-8.80089501676845,5.612677004580577
1.0228133082875972,0.9080612789469178,5.382917495883922,1.8321175356290886,-9.01900701371496,5.340223490794354
1.0318939210770663,0.8178712088097682,5.401238671240213,1.8855197705370321,-9.228875306294219,5.091137774299825
1.040072633165164,0.725582455746826,5.4200938689455835,1.9364311482800303,-9.430130100470146,4.86736269462827
1.0473284577226323,0.6312811547421245,5.4394581804283835,1.985104775226313,-9.622620113707056,4.670761859544918
1.0536412692700534,0.535054953605054,5.459309228180647,2.0318123938217623,-9.80641903061123,4.503117910938633
1.058991818806104,0.43699076329894165,5.4796273521188645,2.0768435729311485,-9.981831357756274,4.366134730852262
1.0633617264390935,0.33717244972137894,5.500395787848176,2.120504920239671,-10.149397854253158,4.261443925893808
1.0667334509363073,0.23567847117884738,5.521600837050573,2.163119359498609,-10.309900779699875,4.190615959306529
1.0690902356480958,0.13257946338184862,5.54323203064556,2.2050255190916745,-10.464369279134939,4.155176327522759
1.0704160302819143,0.02793577059049923,5.565282285836476,2.246577282366902,-10.614085314321269,4.156627205458724
1.0706953879878194,-0.07820508255271345,5.587748058660146,2.2881435544214894,-10.760590650241005,4.196475016486331
1.0699133371622922,-0.1858109890551235,5.61062949420436,2.3301083045863527,-10.905695512692121,4.276264423595491
1.068055227271741,-0.2948679441820447,5.633930577250224,2.3728709488223076,-11.05148964435584,4.397619291734736
1.0651065478299204,-0.4053828406256031,5.657659286738447,2.416847141739655,-11.20035659866793,4.562291239687147
1.0610527194236643,-0.5173864066122824,5.681827758155843,2.4624700541365265,-11.354992217329386,4.77221648113643
1.0558788553575416,-0.6309363287855763,5.706452458697209,2.510192218947891,-11.51842832851397,5.029581739815834
1.0495694920696859,-0.746120612070716,5.731554380886688,2.560488036346049,-11.694062761653226,5.336900091868603
1.0421082859489788,-0.8630612396872482,5.757159261250148,2.613857037264735,-11.885696770747062,5.697097598685296
1.0334776735521063,-0.9819182073947188,5.783297831622796,2.670828013251588,-12.09758083772551,6.11361147041314
1.023658491478159,-1.102894015771974,5.810006111755311,2.7319641279557194,-12.334469496136307,6.590500111361689
1.0126295513204393,-1.226238710733337,5.837325753034868,2.7978691290693365,-12.601685109099263,7.132564513029917
1.000367164213106,-1.3522555618243297,5.865304444325561,2.8691947741996358,-12.90518916988236,7.745478680693739
0.9868446085948627,-1.4813074535231534,5.8939963920675575,2.946649561006573,-13.251657178977167,8.435923421605585
0.9720315340596312,-1.613824025312925,5.923462887677624,3.031008795222629,-13.648548646437545,9.211711712473278
0.9558932938065019,-1.7503095117773004,5.95377297562985,3.1231259123473616,-14.104155827448485,10.08188298477835
0.9383901986887289,-1.8913510700517853,5.985004234753323,3.2239447421951453,-14.627600945923891,11.056724560363344
0.919476687988211,-2.037627079511024,6.017243682175275,3.3345119877987788,-15.228727664855318,12.147645222070057
0.8991004171931007,-2.1899143561595773,6.050588802053263,3.455988440019479,-15.917791248863221,13.366768469838496
0.877201273631505,-2.3490922686482096,6.085148686453458,3.589656124717864,-16.704781242864474,14.726014572330234
0.8537103509450229,-2.5161400810768546,6.1210452477006365,3.7369162704411667,-17.59809107350799,16.235273686084696
0.8285489501342543,-2.6921209918119344,6.158414410405048,3.8992690073020135,-18.602050789360373,17.898994824323104
0.801627740216135,-2.878141499705538,6.197407100478069,4.078258955545245,-19.712521194169476,19.710069264760723
0.7728463252190797,-3.0752667116472328,6.238189690033521,4.275359648192852,-20.909269618494598,21.639214336933403
0.7420936581026074,-3.284359407832179,6.280943286515449,4.491751791562186,-22.143222853910853,23.617180510216198
0.7092500640242856,-3.5057916363712875,6.325860804431072,4.727923596664349,-23.316156079392833,25.506335726400735
0.6741921476605727,-3.7389531971652157,6.373140040397715,4.982986953928356,-24.250821306270133,27.05877163634841
0.6368026156889205,-3.981461410227917,6.422969909936998,5.25357467029184,-24.653401143236454,27.86346479278487
0.5969880015866413,-4.227995421660282,6.475505656639917,5.532209318219689,-24.082605402539194,27.30238739757997
0.5547080473700385,-4.468821475685674,6.530827749822113,5.805233192195488,-21.96689055468986,24.57351351094504
0.5100198326131818,-4.6884903812325724,6.588880081744068,6.050968327304939,-17.746698147748194,18.88844180056295
0.4631349288008561,-4.865957362710055,6.649389765017117,6.239852745310569,-11.207652072107454,9.937398785251085
0.41447535517375556,-4.978033883431129,6.7117882924702235,6.33922673316308,-2.9022942579597113,-1.5209634675258148
0.36469501633944423,-5.007056826010726,6.775180559801854,6.324017098487822,5.743256684710053,-13.509043638587233
0.314624448079337,-4.949624259163626,6.838420730786733,6.18892666210195,13.01019272086441,-23.63936993550259
0.2651282054877007,-4.819522331954982,6.900309997407752,5.952532962746924,17.804700340186127,-30.392521644161835
0.2169329821681509,-4.6414753285531205,6.959835327035221,5.648607746305306,20.055717765583623,-33.66874581018125
0.1705182288826197,-4.440918150897284,7.0163214044982745,5.311920288203493,20.37358393200227,-34.311055732298655
0.12610904737364687,-4.2371823115772616,7.06944060738031,4.968809730880507,19.51235237621286,-33.358239323157875
0.08373722425787425,-4.042058787815133,7.119128704689115,4.635227337648928,18.06666642822512,-31.62600923171791
0.04331663637972292,-3.861392123532882,7.165480978065604,4.3189672453317485,16.413454419375885,-29.628121177012115
0.004702715144394097,-3.6972575793391234,7.208670650518922,4.0226860335616275,14.76006592529017,-27.6442215174959
-0.03226986064899714,-3.5496569200862216,7.248897510854539,3.7462438183866684,13.206973933168106,-25.807050562531426
-0.06776642984985935,-3.4175871807545404,7.286359949038405,3.4881733127613543,11.794607278798393,-24.167210201971038
-0.10194230165740475,-3.2996411079665564,7.3212416821660184,3.246501210741644,10.532299272055104,-22.73300678512297
-0.1349387127370703,-3.194318115246005,7.353706694273435,3.019171142890414,9.414584886916241,-21.492766961012745
-0.16688189388953037,-3.100172266376843,7.38389840570234,2.8042434732802866,8.429862695030044,-20.42662760855705
-0.1978836165532988,-3.0158736394265424,7.411940840435142,2.599977197194716,7.564782028131397,-19.512463157594297
-0.22804235294756423,-2.9402258191452284,7.43794061240709,2.404852565618773,6.8063353684967565,-18.728685837434053
-0.2574446111390165,-2.872162465460261,7.461989138063277,2.217565707244433,6.142754967986527,-18.055430879431402
-0.2861662357936191,-2.8107349157803956,7.4841647951357215,2.037011398450119,5.563804749733912,-17.474936204322848
-0.31427358495142305,-2.7550968682830566,7.504534909120223,1.8622620364068903,5.060779122151087,-16.971541101951782
-0.3418245536342536,-2.7044890770615457,7.523157529484292,1.6925466253873724,4.626370221543539,-16.5315222740546
-0.3688694444048691,-2.6582253748461104,7.540082995738166,1.5272314026468266,4.254485542609185,-16.14287668952073
-0.3954516981533302,-2.615680519420019,7.555355309764634,1.3658026357516193,3.9400561993884664,-15.795103703157302
-0.4216085033475304,-2.576279957426134,7.5690133361221505,1.2078515987200462,3.6788544664496055,-15.479009384879634
-0.4473713029217918,-2.5394914127616377,7.581091852109351,1.05306150487125,3.4673283020289642,-15.186540986735272
-0.47276621704940813,-2.504818129741348,7.591622467158063,0.9011960950038972,3.302455200442641,-14.91065205082163
-0.4978143983468216,-2.4717935777369218,7.600634428108102,0.7520895744956809,3.181615270022653,-14.64519519530808
-0.5225323341241909,-2.4399774250366955,7.608155323853059,0.6056376225426001,3.1024824514600855,-14.38483819616447
-0.5469321083745579,-2.4089526005220945,7.614211700078485,0.4617892405809554,3.0629325167046484,-14.124998610081395
-0.5710216343797788,-2.378323275355048,7.618829592484294,0.3205392544801414,3.06096651717134,-13.861792343430254
-0.5948048671333293,-2.3477136101833347,7.622034985029096,0.18192133104583888,3.094648473272435,-13.59199199988924
-0.6182820032351626,-2.3167671254506104,7.623854198339554,0.04600141104694647,3.1620562131406253,-13.312991402342032
-0.6414496744896687,-2.2851465633192043,7.624314212450024,-0.08712850297647384,3.261244334035273,-13.022773313529676
-0.6643011401228608,-2.2525341199788516,7.6234429274202595,-0.2173562361117706,3.3902182659304825,-12.71987803441165
-0.6868264813226493,-2.2186319373195467,7.621269365059142,-0.3445550164558871,3.546918372482966,-12.403371210322685
-0.7090128006958448,-2.183162753594717,7.617823814894583,-0.46858872855911393,3.729212949058648,-12.072809797251246
-0.730844428231792,-2.1458706241041305,7.613137927608992,-0.5893168265316264,3.9348988937060265,-11.72820570934139
-0.7523031344728333,-2.1065216351670704,7.6072447593436765,-0.7065988836250403,4.161708757462287,-11.369987161028545
-0.773368350824504,-2.0649045475924477,7.600178770507426,-0.8202987552353258,4.407322844227659,-10.99895811360868
-0.7940173963004284,-2.020831319150171,7.591975782955073,-0.9302883363714126,4.6693850410688915,-10.616256522895583
-0.8142257094919302,-1.9741374687394821,7.582672899591358,-1.0364509016003685,4.945521123803248,-10.223312255997659
-0.833967084179325,-1.9246822575014497,7.572308390575355,-1.138684024160345,5.233358399572543,-9.821805603807924
-0.8532139067543395,-1.8723486735057242,7.5609215503337515,-1.2369020801984243,5.530545710871012,-9.413627272671215
-0.8719373934893967,-1.817043216397014,7.548552529531767,-1.3310383529251364,5.834773022013334,-9.000840612264701
-0.8901078256533669,-1.7586954861768807,7.535242146002515,-1.4210467590477833,6.14379002383314,-8.585646650658628
-0.9076947805151356,-1.6972575859385493,7.5210316784120375,-1.5069032255543695,6.455423408641155,-8.170352288235497
-0.9246673563745211,-1.6327033518521377,7.505962646156494,-1.5886067484367246,6.767592668889463,-7.757341776189832
-0.9409943898930425,-1.565027425163243,7.490076578672126,-1.6661801661986229,7.07832444559966,-7.349051396969423
-0.956644664144675,-1.4942441807072464,7.47341477701014,-1.739670680168317,7.385765585963779,-6.947947093244259
-0.9715871059517475,-1.4203865248476086,7.456018070208456,-1.8091501511007597,7.688195157462386,-6.556504673169058
-0.9857909712002235,-1.343504573272985,7.437926568697448,-1.8747151978324503,7.9840357067750585,-6.177192160891797
-0.9992260169329533,-1.2636642162052343,7.419179416719124,-1.9364871194413682,8.271864048471562,-5.812453864142638
-1.0118626590950057,-1.1809455757205187,7.39981454552471,-1.9946116580827946,8.550421827570688,-5.464695791164276
-1.023672114852211,-1.0954413574448119,7.379868428943882,-2.0492586159944373,8.818626031112725,-5.136272158175521
-1.0346265284266591,-1.0072550971336847,7.359375842783938,-2.1006213375761926,9.075579538439154,-4.829472873356647
-1.044699079397996,-0.9164993017492931,7.3383696294081755,-2.1489160663097593,9.320581710286195,-4.546512049221453
-1.0538640724154889,-0.8232934846464312,7.316880468745078,-2.194381186801974,9.553138935211653,-4.2895177668025966
-1.062097007261953,-0.7277620952943147,7.294936656877058,-2.2372763644699996,9.772974989176797,-4.060523477786826
-1.0693746282148962,-0.6300323454025467,7.272563893232358,-2.277881599247868,9.98004102911399,-3.861461572241126
-1.0756749516689217,-0.5302319351114069,7.2497850772398795,-2.3164962149702792,10.174525040172682,-3.6941597507656447
-1.0809772710200358,-0.42848668470968004,7.226620115090177,-2.3534378124779356,10.35686059221405,-3.560340915685544
-1.0852621378671325,-0.32491807878753953,7.203085736965398,-2.389041221634791,10.527734834186798,-3.4616273355150424
-1.088511318655008,-0.21964073044567156,7.17919532474905,-2.4236574949899414,10.688095762734582,-3.3995498440052945
-1.0907077259594646,-0.11275977281832573,7.1549587497991505,-2.457652993429994,10.839158939086547,-3.3755628171986376
-1.091835323687648,-0.004368183427460273,7.130382219864851,-2.4914086216019804,10.982413989903316,-3.3910656398706656
-1.0918790055219225,0.1054559564715729,7.105468133648831,-2.525319278000687,11.11963140668394,-3.447431339653106
-1.0908244459572067,0.2166522705384123,7.0802149408688235,-2.559793591397218,11.252870348252328,-3.546043047246972
-1.0886579232518225,0.3291809740209356,7.054617004954851,-2.5952540218696876,11.384488346337223,-3.688338948641527
-1.0853661135116133,0.44302585748430784,7.0286644647361545,-2.6321374113561027,11.517154011211254,-3.8758664429305103
-1.0809358549367702,0.5581973975964204,7.002343090622594,-2.6708960757854077,11.653864029739308,-4.11034631704113
-1.075353880960806,0.6747360378938134,6.97563412986474,-2.711999538955819,11.797965939151272,-4.393747901465219
-1.068606520581868,0.7927156972853262,6.9485141344751815,-2.755937017970471,11.953188341622806,-4.728376376084286
-1.0606793636090148,0.9122475807015542,6.920954764295477,-2.803220781731314,12.123680386689088,-5.1169736368092895
-1.0515568878019992,1.0334843845684452,6.8929225564781635,-2.854390518099407,12.314062467182739,-5.562834374911192
-1.0412220439563147,1.1566250092402726,6.864378651297169,-2.9100188618485188,12.529490101384548,-6.069939187396184
-1.029655793863912,1.2819199102541181,6.835278462678684,-2.9707182537224806,12.775732814929585,-6.6431064892866
-1.0168365947613707,1.409677238403414,6.80557128014146,-3.0371493186153464,13.059269313139229,-7.288164482725769
-1.0027398223773365,1.5402699315348063,6.775199786955306,-3.110030963442604,13.387399021875908,-8.012142994202845
-0.9873371230619884,1.6741439217535654,6.74409947732088,-3.1901523933846323,13.768367582591468,-8.82348179571537
-0.9705956838444527,1.8118275975794802,6.712197953387034,-3.278387211341786,14.211499054416482,-9.732245602477454
-0.9524774078686579,1.953942588123645,6.679414081273616,-3.3757096673665603,14.727318503764575,-10.750323647603887
-0.9329379819874214,2.101215773161291,6.64565698459995,-3.483212903842599,15.327631955098019,-11.891568847545114
-0.9119258242558085,2.254492092712271,6.610824855561524,-3.60212859231805,16.025500277919093,-13.171789646407177
-0.8893809033286858,2.414747095491462,6.574803569638344,-3.733846488782122,16.834988731866524,-14.608431630184848
-0.8652334323737711,2.5830969828101273,6.537465104750522,-3.8799308050839705,17.770475639841994,-16.21964942031953
-0.8394024625456699,2.760801739208547,6.498665796699682,-4.0421272992871655,18.845129317562417,-18.022226335997406
-0.8117944451535843,2.9492530323841715,6.458244523706811,-4.22234956264714,20.067857766629135,-20.027373645444698
-0.7823019148297427,3.1499316100504626,6.41602102808034,-4.422623299101587,21.437518216953066,-22.232716423167954
-0.750802598729238,3.364306792219993,6.371794795089324,-4.6449504633332666,22.932341710076795,-24.607604472662665
-0.7171595308070381,3.5936302093207613,6.325345290455991,-4.891026508059893,24.49133850478356,-27.067209377876296
-0.6812232287138305,3.838543594368597,6.276435025375393,-5.161698601838656,25.983218961500693,-29.42911574990025
-0.6428377927701445,4.098375783983604,6.2248180393570065,-5.455989759337658,27.158659327445392,-31.346468084528595
-0.6018540349303085,4.369962377258058,6.17025814176363,-5.769454440182944,27.588458037135933,-32.22104069373851
-0.5581544111577279,4.645846957629417,6.112563597361801,-6.091664847120329,26.6143783442866,-31.133444863766368
-0.5116959415814337,4.911990741072283,6.051646948890597,-6.402999295757993,23.395101030239935,-26.905581137203793
-0.4625760341707109,5.145941751374682,5.987616955933017,-6.6720551071300305,17.1972798787055,-18.505381380806178
-0.4111166166569641,5.3179145501617375,5.9208964048617165,-6.857108920938092,8.018204901834274,-5.91568640148566
-0.3579374711553467,5.3980965991800804,5.852325315652336,-6.916265784952949,-2.8030450406775134,9.011627644589995
-0.3039565051635459,5.370066148773305,5.783162657802806,-6.826149508507049,-12.842728417477439,22.913156634708255
-0.25025584367581283,5.241638864598531,5.7149011627177355,-6.597017942159966,-19.972004128922936,32.835921159997525
-0.19783945502982753,5.0419188233093015,5.648930983296136,-6.268658730559991,-23.55102065970218,37.89616426998
-0.1474202667967345,4.80640861671228,5.586244395990536,-5.88969708786019,-24.27097002813152,39.05350071823463
-0.09935618062961171,4.5636989164309645,5.527347425111934,-5.499162080677844,-23.247149334955772,37.84853817969088
-0.05371919146530207,4.3312274230814065,5.472355804305155,-5.120676698880935,-21.393152312636303,35.53716459101439
-0.010406917234488,4.117295899955043,5.421149037316346,-4.765305052970791,-19.2737882613316,32.89063907645467
0.03076604176506243,3.9245580173417274,5.373495986786638,-4.436398662206244,-17.182375422077907,30.305178111709882
0.0700116219384797,3.7527342631209484,5.3291320001645754,-4.133346881089145,-15.248820884899251,27.952453082367676
