th1 (rad),w1 (rad/s),th2 (rad),w2 (rad/s),a1 (rad/s^2),a2 (rad/s^2)
1.8114811770786148,-3.082464460115171,1.6920253878911706,1.372685683916096,-10.574899797504191,1.9037859757929665
1.780656532477463,-3.188213458090213,1.7057522447303315,1.3917235436740256,-10.331936011740627,1.3527421495571592
1.7487743978965609,-3.291532818207619,1.7196694801670718,1.4052509651695972,-9.967071439249564,0.5865331737035542
1.7158590697144847,-3.3912035326001146,1.7337219898187677,1.4111162969066329,-9.481485448370991,-0.3956626182578006
1.6819470343884835,-3.4860183870838246,1.747833152787834,1.4071596707240548,-8.8859179571743,-1.5802768918038061
1.6470868505176453,-3.5748775666555677,1.7619047494950744,1.3913569018060168,-8.200851364742734,-2.938851995521329
1.6113380748510895,-3.656886080302995,1.7758183185131344,1.3619683818508035,-7.454926803607338,-4.430101360182434
1.5747692140480596,-3.7314353483390685,1.7894380023316425,1.3176673682489792,-6.681686364280423,-6.004430204576027
1.537454860564669,-3.7982522119818727,1.8026146760141324,1.257623066203219,-5.915283913022643,-7.610020627547412
1.4994723384448503,-3.857405051112099,1.8151909066761647,1.181522859927745,-5.186168893337722,-9.199050132420023
1.4608982879337293,-3.909266740045476,1.827006135275442,1.0895323586035448,-4.517732573887862,-10.732612246798977
1.4218056205332745,-3.954444065784355,1.8379014588614775,0.982206236135555,-3.9245284458148344,-12.183430415921523
1.382261179875431,-3.9936893502425033,1.8477235212228331,0.8603719319763398,-3.4121416166248046,-13.536217203147665
1.3423242863730058,-4.027810766408751,1.8563272405425966,0.725009759944863,-2.9783365917773423,-14.786173507380296
1.3020461787089184,-4.057594132326525,1.8635773381420453,0.5771480248710601,-2.614906491664846,-15.93643196347606
1.2614702373856532,-4.083743197243173,1.8693488183907558,0.4177837052362995,-2.309676766580072,-16.995222462618607
1.2206328054132214,-4.106839964908974,1.873526655443119,0.24783148061011342,-2.0482843688323085,-17.97331125837039
1.1795644057641317,-4.127322808597297,1.87600497024922,0.0680983680264095,-1.815549116932652,-18.881993282195893
1.1382911776781588,-4.145478299766624,1.8766859539294842,-0.12072156479554944,-1.5964079874749995,-19.731699976486297
1.0968363946804927,-4.1614423796413735,1.8754787382815288,-0.3180385645604124,-1.376473436785047,-20.53115510951409
1.0552219708840789,-4.175207114009224,1.8722983526359247,-0.5233501156555533,-1.1423124192903522,-21.286957852896368
1.0134698997439866,-4.186630238202127,1.867064851479369,-0.736219694184517,-0.8815432160220972,-22.003469007045588
0.9716035973619653,-4.195445670362348,1.859702654537524,-0.9562543842549729,-0.5828306736639203,-22.682897291262737
0.9296491406583418,-4.201273977098987,1.8501401106949742,-1.1830833571676003,-0.23583914421666968,-23.325510770798257
0.887636400887352,-4.203632368541154,1.8383092771232983,-1.4163384648755828,0.16881734882855334,-23.92992449983147
0.8456000772019404,-4.201944195052868,1.8241458924745424,-1.6556377098738975,0.6396040647427319,-24.493435651114485
0.8035806352514118,-4.195548154405441,1.8075895153758035,-1.9005720663850423,1.184061781795171,-25.012391238798717
0.7616251537073574,-4.183707536587489,1.7885837947119532,-2.1506959787730295,1.80876697530095,-25.482581858998838
0.7197880783414825,-4.165619866834479,1.767076834924223,-2.405521797363018,2.5192587127391755,-25.89965890741407
0.6781318796731377,-4.140427279707088,1.7430216169505928,-2.664518386437159,3.319939566008539,-26.25957366726571
0.6367276068760668,-4.107227884047002,1.7163764330862212,-2.927114123109816,4.213961311221582,-26.55903548019365
0.5956553280355967,-4.065088270934786,1.687105291855123,-3.192704477911753,5.20310887255236,-26.79598370487502
0.5550044453262488,-4.013057182209263,1.6551782470760055,-3.460664314960503,6.287697904203363,-26.970064964128188
0.5148738735041561,-3.950180203167229,1.6205716039264004,-3.730364964601785,7.466502436225054,-27.083103794273157
0.47537207147248384,-3.8755151788049784,1.5832679542803825,-4.001196002544517,8.73672882363534,-27.139551643807287
0.43661691968443406,-3.788147890568625,1.5432559942549373,-4.27259151898259,10.094050394325393,-27.146896479221713
0.3987354407787478,-3.687207386625371,1.5005300790651115,-4.544060483774807,11.532713128397555,-27.116013061693177
0.3618633669124941,-3.5718802553413957,1.4550894742273635,-4.815220614391738,13.045715704192299,-27.061431868382673
0.3261445643590801,-3.441423098299473,1.406937268083446,-5.0858349330755654,14.625056338607456,-27.001501569210006
0.2917303333760854,-3.2951725349133985,1.3560789187526903,-5.355849948767665,16.26202256005267,-26.958413727856673
0.2587786080269514,-3.1325523093128718,1.3025204192650137,-5.625434086046232,17.947475955559714,-26.958044924008124
0.22745308493382269,-2.9530775497572748,1.2462660784045514,-5.895014535286313,19.67204782119662,-27.029543731817554
0.19792230943624994,-2.7563570715453087,1.1873159330516883,-6.165309972604488,21.426106120665867,-27.20453595612721
0.17035873872079685,-2.54209601033865,1.1256628333256433,-6.43735533216576,23.19926638904405,-27.515721257611155
0.14493777861741036,-2.3101033464482095,1.0612892800039857,-6.712512544741871,24.979077674877654,-27.994455242779484
0.12183674515292826,-2.060312569699433,0.9941641545565669,-6.992457097169666,26.74828523949201,-28.66660234307534
0.10123361945593393,-1.792829717304513,0.9242395835848702,-7.27912312060042,28.47970649121153,-29.54543362464132
0.0833053222828888,-1.5080326523923975,0.8514483523788661,-7.574577456846833,30.127205134618528,-30.61954829040105
0.06822499575896482,-1.2067606010462122,0.7757025778103978,-7.880772939750844,31.61051537245349,-31.832700152107435
0.05615738974850269,-0.8906554473216772,0.6968948484128893,-8.199099941271918,32.79100259451646,-33.05130856825932
0.047250835275285924,-0.5627454213765126,0.6149038490001701,-8.529613026954511,33.43585867084153,-34.01564089686992
0.041623381061520796,-0.22838683466809728,0.5296077187306251,-8.86976943592321,33.17261819142086,-34.27606457216962
0.039339512714839826,0.10333934724611132,0.44091002437139293,-9.212530081644907,31.450623951876324,-33.13512034801431
0.04037290618730094,0.41784558676487454,0.34878472355494383,-9.54388128512505,27.55988631308096,-29.661730201684293
0.04455136205494968,0.6934444498956842,0.25334591070369333,-9.840498587141893,20.80575362315484,-22.909873553782813
0.05148580655390653,0.9015019861272326,0.1549409248322744,-10.069597322679721,10.933778417105088,-12.471600332148663
0.06050082641517886,1.0108397702982836,0.05424495160547718,-10.194313326001208,-1.3102356886242381,0.7852623856914245
0.0706092241181617,0.9977374134120413,-0.04769818165453489,-10.186460702144293,-14.01563851013685,14.502429981775764
0.08058659825228212,0.8575810283106727,-0.14956278867597783,-10.041436402326536,-24.870374341175484,25.842629400612292
0.08916240853538884,0.6088772848989179,-0.2499771526992432,-9.783010108320413,-32.401366175962906,33.10350050662983
0.09525118138437802,0.2848636231392888,-0.3478072537824473,-9.451975103254115,-36.504535528453054,36.354822644727
0.09809981761577091,-0.08018173214524171,-0.4423270048149885,-9.088426876806846,-37.96684872544576,36.754296933510126
0.0972980002943185,-0.4598502193996993,-0.533211273583057,-8.720883907471745,-37.74650697011893,35.59490967660705
0.0926994981003215,-0.8373152891008886,-0.6204201126577744,-8.364934810705675,-36.58744125168821,33.82813626305987
0.08432634520931262,-1.2031897016177706,-0.7040694607648311,-8.026653448075077,-34.95691987092155,32.01456902582064
0.07229444819313491,-1.5527589003269862,-0.784335995245582,-7.706507757816871,-33.11329634813283,30.432965563023252
0.05676685918986504,-1.8838918638083144,-0.8614010728237507,-7.402178102186638,-31.186486483596603,29.194320766054226
0.0379279405517819,-2.1957567286442803,-0.9354228538456171,-7.110234894526096,-29.23603327172627,28.319916272692485
0.015970373265339094,-2.488117061361543,-1.006525202790878,-6.827035731799171,-27.286318277120124,27.78668868993144
-0.008910797348276336,-2.7609802441327442,-1.0747955601088697,-6.549168844899857,-25.346164788688423,27.551523077777265
-0.03652059978960378,-3.0144418920196285,-1.1402872485578683,-6.273653614122084,-23.419150561301638,27.563673395283153
-0.06666501870980007,-3.248633397632645,-1.2030237846990892,-5.998016880169253,-21.508701467350605,27.770958168211383
-0.09915135268612651,-3.463720412306151,-1.2630039535007818,-5.720307298487139,-19.620320055767543,28.12284936278533
-0.13378855680918803,-3.6599236128638264,-1.3202070264856531,-5.439078804859285,-17.7622540712064,28.57207530694172
-0.1703877929378263,-3.8375461535758904,-1.374597814534246,-5.153358051789868,-15.945323894523248,29.07553804166798
-0.2087632544735852,-3.996999392521123,-1.4261313950521446,-4.862602671373189,-14.18231324584963,29.594913314574956
-0.24873324839879643,-4.138822524979619,-1.4747574217658765,-4.566653538227439,-12.487160606265489,30.097081005795953
-0.29012147364859264,-4.263694131042274,-1.520423957148151,-4.265682728169479,-10.874098727624354,30.55442697788717
-0.33275841495901537,-4.372435118318518,-1.5630807844298458,-3.960138458390608,-9.356837921376785,30.945011427924364
-0.37648276614220055,-4.466003497532286,-1.6026821690137518,-3.650688344111364,-7.94785563149371,31.252585377397075
-0.42114280111752345,-4.545482053847223,-1.6391890524548656,-3.3381624903373934,-6.657830318880131,31.466440178438948
-0.46659762165599566,-4.612060357036024,-1.6725706773582396,-3.023498088553004,-5.4952375482035904,31.581085613310055
-0.5127182252263559,-4.66701273251806,-1.7028056582437696,-2.7076872324199037,-4.466108780306579,31.59576462089918
-0.5593883525515365,-4.711673820321126,-1.7298825305679686,-2.391729586210912,-3.5739384151417264,31.51382327449053
-0.6065050907547478,-4.747413204472543,-1.7537998264300778,-2.0765913534660068,-2.819712197331048,31.34196109917958
-0.6539792227994732,-4.775610326445853,-1.7745657399647379,-1.7631717424742108,-2.202020221444136,31.08938788605178
-0.7017353260639317,-4.797630528660294,-1.7921974573894799,-1.452277863613693,-1.7172101889315723,30.76690830818493
-0.7497116313505346,-4.81480263054961,-1.8067202360256167,-1.1446087805318437,-1.3595306366546855,30.385944886520527
-0.7978596576560307,-4.828397936916157,-1.8181663238309351,-0.8407493316666383,-1.1212086410967643,29.957493592029635
-0.8461436370251922,-4.839610023327125,-1.8265738171476016,-0.541174395746342,-0.9924009773860049,29.490985352518596
-0.8945397372584635,-4.849534033100984,-1.831985561105065,-0.246264542221156,-0.9609511857056315,28.993002298225356
-0.9430350775894734,-4.859143544958041,-1.8344482065272767,0.04366548076109755,-1.0118779020261077,28.465772477953912
-0.9916265130390538,-4.869262323978302,-1.8340115517196658,0.3283232055406367,-1.1265151831984876,27.905347033686947
-1.0403191362788369,-4.880527475810287,-1.8307283196642594,0.6073766758775062,-1.2812317258663635,27.299362404129944
-1.0891244110369398,-4.893339793068951,-1.8246545529054843,0.8803702999188057,-1.4456909861538505,26.624333264932886
-1.1380578089676292,-4.907796702930489,-1.8158508499062962,1.1466136325681346,-1.580712786995215,25.84255830543775
-1.187135775996934,-4.923603830800442,-1.8043847135806148,1.4050392156225122,-1.6360165876538144,24.899030900702694
-1.2363718143049385,-4.93996399667698,-1.7903343214243896,1.6540295246295391,-1.548545549175064,23.719338697375445
-1.2857714542717082,-4.955449452168731,-1.7737940261780942,1.8912229116032935,-1.242753113768976,22.21049661179584
-1.3353259487933955,-4.967876983306421,-1.7548817970620614,2.113327877721252,-0.6351160553960843,20.26788948617919
-1.3850047186264598,-4.9742281438603815,-1.7337485182848489,2.316006772583044,0.3542132966516482,17.792382738463786
-1.4347470000650637,-4.970686010893865,-1.7105884505590185,2.493930599967682,1.7803883481727973,14.72062991440792
-1.4844538601740025,-4.9528821274121375,-1.6856491445593418,2.641136899111761,3.6449442678345596,11.066313513578995
-1.5339826814481239,-4.916432684733792,-1.6592377755682242,2.751800034247551,5.86790029413642,6.959436968143268
-1.5831470082954617,-4.857753681792428,-1.6317197752257486,2.8213944039289833,8.277801847123285,2.6595380220544826
-1.631724545113386,-4.774975663321195,-1.6035058311864587,2.847989784149528,10.636214662300585,-1.4805346265321933
-1.6794743017465978,-4.668613516698189,-1.5750259333449634,2.833184437884206,12.69675719774239,-5.100064977654456
-1.7261604369135797,-4.541645944720765,-1.5466940889661214,2.782183788107661,14.273820806303457,-7.929348629511878
-1.7715768963607874,-4.39890773665773,-1.5188722510850448,2.7028903018125425,15.285732785668259,-9.851516177414242
-1.8155659737273646,-4.246050408801048,-1.4918433480669193,2.6043751400384,15.754311338232846,-10.90149829421442
-1.858026477815375,-4.088507295418719,-1.4657995966665354,2.495360157096256,15.771286965855912,-11.217188816210324
-1.8989115507695622,-3.9307944257601597,-1.4408459950955728,2.3831882689341524,15.45617771761417,-10.978135956105781
-1.9382194950271638,-3.776232648584018,-1.4170141124062312,2.2734069093730946,14.92425557326586,-10.358647981645897
-1.975981821513004,-3.626990092851359,-1.3942800433125002,2.1698204295566357,14.270073938975253,-9.50333791220643
-2.0122517224415177,-3.4842893534616066,-1.3725818390169338,2.0747870504345713,13.563264833633,-8.520497355697932
-2.0470946159761336,-3.3486567051252765,-1.351833968512588,1.989582076877592,12.851052721095485,-7.485352074778384
-2.0805811830273866,-3.2201461779143217,-1.3319381477438121,1.9147285561298082,12.163184599774185,-6.446986282106041
-2.1127826448065297,-3.0985143319165798,-1.312790862182514,1.8502586933087477,11.516913988772394,-5.435482162831623
-2.1437677881256954,-2.983345192028856,-1.2942882752494265,1.7959038716804314,10.921097575537395,-4.467865971711872
-2.173601240045984,-2.874134216273482,-1.2763292365326222,1.7512252119633127,10.379227223938612,-3.5525639409306438
-2.202342582208719,-2.770341944034096,-1.258816984412989,1.7156995725540063,9.891535745399393,-2.6925399085532993
-2.2300460016490598,-2.671426586580102,-1.241659988687449,1.6887741734684734,9.456397121821787,-1.8874165387441815
-2.256760267514861,-2.5768626153618843,-1.2247722469527644,1.6699000080810316,9.071226599580928,-1.1348678868977045
-2.2825288936684798,-2.486150349366075,-1.2080732468719542,1.6585513292120546,8.733041643362604,-0.4315119130272825
-2.3073903971621403,-2.398819932932449,-1.1914877335798337,1.6542362100817818,8.438799748921001,0.22653053717924593
-2.3313785964914646,-2.314431935443239,-1.174945371479016,1.6565015154535743,8.185592764015343,0.8432947456247272
-2.354522915845897,-2.2325760078030856,-1.15838035632448,1.6649344629098215,7.970750771833694,1.4227713039050232
-2.376848675923928,-2.1528685000847485,-1.1417310116953818,1.6791621759488717,7.7918901474494255,1.9687940333161964
-2.3983773609247754,-2.0749495986102544,-1.124939389935893,1.6988501162820338,7.646928007194429,2.4849830958357995
-2.419126856910878,-1.9984803185383102,-1.1079508887730727,1.7236999472403918,7.534077111374824,2.974721625448055
-2.4391116600962612,-1.923139547424562,-1.0907138893006687,1.7534471634948723,7.451829977743437,3.4411519929826397
-2.458343055570507,-1.8486212476471278,-1.07317941766572,1.7878586834246988,7.3989375477025945,3.887182872049785
-2.4768292680469783,-1.7746318721701018,-1.0553008308314729,1.8267305121451967,7.374385561984276,4.315501531085781
-2.494575586768679,-1.700888016550259,-1.037033525710021,1.8698855274560544,7.377370411495777,4.728587860145002
-2.5115844669341816,-1.6271143124353011,-1.0183346704354603,1.9171714060575045,7.407275346863869,5.128727961684984
-2.5278556100585345,-1.5530415589666624,-0.9991629563748853,1.9684586856743542,7.46364737197603,5.518025960843545
-2.5433860256482013,-1.4784050852469022,-0.9794783695181417,2.02363894528279,7.546174793291904,5.898413197599435
-2.5581700765006703,-1.402943337313983,-0.9592419800653138,2.082623077258784,7.65466517149786,6.271654264657838
-2.57219950987381,-1.3263966855990044,-0.938415749292726,2.1453396199053625,7.789023276661098,6.639349525301759
-2.5854634767298004,-1.2485064528323935,-0.9169623530936724,2.21173311515838,7.94922855204854,7.002933833829346
-2.5979485412581242,-1.169014167311908,-0.8948450219420886,2.281762453496673,8.135311526883413,7.363671220518497
-2.6096386829312435,-1.087661052043074,-0.8720273974071219,2.3553991657018583,8.34732857437521,7.722645316354794
-2.620515293451674,-1.004187766299322,-0.8484734057501033,2.4326256188654063,8.585334384069787,8.080745297216737
-2.6305571711146674,-0.9183344224586241,-0.8241471495614493,2.5134330718375737,8.849351507095035,8.438647136962363
-2.6397405153392537,-0.8298409073876737,-0.7990128188430735,2.5978195432071973,9.139336343150738,8.796789986890262
-2.6480389244131306,-0.7384475439561663,-0.7730346234110015,2.6857874430760997,9.455140976476985,9.155347558541102
-2.655423399852692,-0.6438961341913965,-0.7461767489802404,2.7773409186615106,9.796470345248503,9.514194492044043
-2.661862361194606,-0.5459314307389114,-0.7184033397936254,2.872482863581951,10.162834358905645,9.872867859069666
-2.667321675501995,-0.4443030871498549,-0.6896785111578059,2.9712115421726475,10.55349477802635,10.230524195438308
-2.6717647063734935,-0.3387681393695914,-0.6599663957360794,3.0735167841270306,10.967406961329786,10.585892802160881
-2.675152387767189,-0.22909406975629354,-0.6292312278948091,3.1793757121486395,11.403156985778123,10.937226513541528
-2.677443328464752,-0.1150624998985123,-0.5974374707733228,3.288747977284055,11.858895179707607,11.282251722713314
-2.678593953463737,0.003526451898563765,-0.5645499910004822,3.401570494511188,12.33226779320465,11.618120187999569
-2.6785586889447512,0.12684912983061025,-0.5305342860553703,3.5177516963911835,12.820349374047002,11.941366015397723
-2.677290197646445,0.2550526235710803,-0.4953567690914585,3.6371653565451605,13.319579416088255,12.247872201870532
-2.6747396714107343,0.38824841773196284,-0.45898511552600685,3.759644078563866,13.825707971185402,12.53285218172581
-2.670857187233415,0.5265054974438168,-0.4213886747403682,3.884972600381124,14.333756103344976,12.790852857163
-2.665592132258977,0.6698430584772666,-0.3825389487365569,4.0128811289527535,14.837998208335998,13.015786479992148
-2.658893701674204,0.8182230405606266,-0.34241013744702936,4.143038993752675,15.331974164354692,13.200999297259246
-2.6507114712685977,0.9715427822041734,-0.3009797475095026,4.275048986725267,15.808539803589802,13.339384839289062
-2.640996043446556,1.1296281802400714,-0.25822925764224997,4.408442835118158,16.259964034332082,13.423548835205997
-2.6296997616441553,1.2922278205833921,-0.21414482929106837,4.542678323470217,16.678079802943447,13.446030699945236
-2.6167774834383213,1.4590086186128266,-0.1687180460563662,4.67713863046967,17.05449368125581,13.399583102940408
-2.602187397252193,1.6295535554253848,-0.1219466597516695,4.811134461499074,17.380854991302602,13.277506174938575
-2.5858918616979394,1.8033621053384108,-0.07383531513667876,4.943909523248459,17.6491799901766,13.074026517916746
-2.567858240644555,1.979853905240177,-0.024396219904194168,5.074649788427627,17.852219940885988,12.7847037368638
-2.5480597015921536,2.1583761046490366,0.026350277980082104,5.202496825796265,17.983854428812588,12.406839459639029
-2.526475940545663,2.3382146489371625,0.07837524623804476,5.326565220392656,18.03948394831314,11.93985686779971
-2.5030937940562916,2.518609488420294,0.13164089844197133,5.445963789070653,18.01638979263604,11.385614013648942
-2.4779076991720888,2.6987733863466543,0.18610053633267787,5.559819929207142,17.91402599985112,10.748613089334883
-2.450919965308622,2.8779136463451653,0.2416987356247493,5.667306060100492,17.73420879524802,10.036071520450509
-2.4221408288451705,3.0552557342976456,0.2983717962257542,5.767666775304996,17.481174441238398,9.257829823246274
-2.391588271502194,3.2300674787100294,0.3560484639788042,5.860245073537459,17.16148671113869,8.426085185668002
