th1 (rad),w1 (rad/s),th2 (rad),w2 (rad/s),a1 (rad/s^2),a2 (rad/s^2)
2.649856176271298,2.4865835318682246,4.442177015266489,-2.813226371116673,-0.40152940091674405,3.324172464673322
2.6747220115899806,2.482568237859057,4.414044751555322,-2.77998464646994,-0.3301313477036028,3.235875371585014
2.699547693968571,2.479266924382021,4.3862449050906225,-2.74762589275409,-0.2609283898969824,3.147690914503056
2.724340363212391,2.4766576404830514,4.358768646163082,-2.7161489836090595,-0.19289350873446356,3.0599413738398704
2.7491069396172216,2.4747287053957066,4.331607156326991,-2.685549569870661,-0.12512852756884357,2.972741529014851
2.7738542266711788,2.4734774201200183,4.304751660628285,-2.6558221545805125,-0.05682921325319212,2.8860338632384703
2.798589000872379,2.4729091279874864,4.27819343908248,-2.626961815948128,0.01274345963241055,2.79961535983247
2.823318092152254,2.4730365625838107,4.251923820922999,-2.598965662349803,0.08428699552561579,2.71315758981368
2.848048457778092,2.473879432539067,4.225934164299501,-2.5718340864516662,0.15847690331498462,2.626221596387506
2.8727872521034823,2.475464201572217,4.200215823434984,-2.545571870487791,0.23598271826316666,2.5382689277629127
2.8975418941192044,2.4778240287548483,4.174760104730106,-2.5201891812101618,0.31748094884820116,2.4486700735279947
2.922320134406753,2.4809988382433303,4.149558212918005,-2.4957024804748817,0.4036651450732924,2.356711532755714
2.947130122789186,2.4850354896940634,4.124601188113256,-2.4721353651473246,0.49525304306428386,2.261602792078563
2.9719804776861265,2.489988020124706,4.099879834461783,-2.449519337226539,0.592990479557864,2.162484626290291
2.9968803578873735,2.4959179249202847,4.075384641089517,-2.427894490963636,0.6976514788762629,2.0584403592333054
3.0218395371365765,2.5028944397090473,4.051105696179881,-2.407310087371303,0.8100335849991116,1.948512043814889
3.046868481533667,2.5109947755590385,4.027032595306167,-2.387824966933154,0.9309471369056141,1.8317239372770904
3.0719784292892576,2.5203042469280947,4.003154345636836,-2.369507727560383,1.0611967688250956,1.7071161512763562
3.0971814717585384,2.5309162146163455,3.979459268361232,-2.3524365660476194,1.201552975107799,1.5737919161573592
3.122490633904702,2.5429317443674235,3.955934902700756,-2.336698646886046,1.3527111531348772,1.4309824512063118
3.1479199513483764,2.5564588558987724,3.9325679162318954,-2.322388822373983,1.5152352067857995,1.278133858979965
3.1734845399073643,2.5716112079666305,3.9093440280081557,-2.309607483784183,1.6894826953536128,1.1150205606875965
3.199200651987031,2.5885060349201665,3.886247953170314,-2.298457278177307,1.875508867764676,0.9418892436395243
3.2250857123362326,2.607261123597813,3.8632633803885406,-2.289038385740912,2.0729480529887456,0.759635635052692
3.2511583235722106,2.627990604127701,3.8403729965311313,-2.281442029390385,2.2808732230404916,0.5700130192906558
3.2774382296134874,2.650799336358106,3.8175585762372273,-2.2757418991974783,2.49763863481692,0.37586551817401614
3.3039462229770686,2.675775722706275,3.7948011572452525,-2.271983244015738,2.720716816707333,0.18137000347881332
3.3307039802041314,2.7029828908733484,3.7720813248050953,-2.2701695439809497,2.946550095591733,-0.007742323204517857
3.357733809112865,2.7324483918292657,3.749379629365286,-2.270246967212995,3.1704480334042437,-0.1840297014572893
3.3850582930311575,2.764152872163308,3.726677159693156,-2.272087264227568,3.3865740135750277,-0.33831101958329113
3.4126998217527906,2.7980186122990585,3.70395628705088,-2.2754703744234006,3.588073346319822,-0.459839718835853
3.4406800078757813,2.8338993457622568,3.6812015833066463,-2.2800687716117594,3.7673959216002295,-0.5367567649344868
3.469019001333404,2.8715733049782592,3.6584008955905287,-2.2854363392611043,3.9168511937550425,-0.5568774859252017
3.4977347343831866,2.9107418169158095,3.6355465321979175,-2.2910051141203565,4.0293954042234725,-0.5088131899886208
3.526842152552345,2.951035770958044,3.6126364810567138,-2.296093246020243,4.0995891115487835,-0.38334030612672465
3.556352510261925,2.992031662073532,3.5896755485965115,-2.29992664908151,4.124587208208183,-0.1748213314989167
3.5862728268826602,3.0332775341556135,3.5666762821056963,-2.3016748623964993,4.104958098356299,0.11761218845339755
3.6166056022242166,3.0743271151391767,3.543659533481731,-2.3004987405119652,4.045107936741744,0.48943518944785963
3.6473488733756083,3.114778194506594,3.5206545460766114,-2.2956043886174866,3.95313854078972,0.9309100308123881
3.678496655320674,3.1543095799144916,3.4976985021904365,-2.2862952883093626,3.8400957463263996,1.4281384841253348
3.710039751119819,3.1927105373777556,3.474835549307343,-2.272013903468109,3.7187313976309726,1.964813857096694
3.7419668564935966,3.2298978513540653,3.4521154102726617,-2.2523657648971422,3.602041566973157,2.5243030110617184
3.7742658350071374,3.265918267023797,3.4295917526236903,-2.227122734786525,3.5018962630694004,3.091610959341628
3.8069250176773752,3.3009372296544908,3.407320525275825,-2.196206625193109,3.428022521723932,3.6548539826570154
3.8399343899739202,3.33521745487173,3.3853584590238937,-2.1596580853665386,3.3874745662167207,4.206047288522451
3.8732865645226373,3.3690922005338972,3.3637618781702283,-2.117597612481314,3.3845815935043064,4.7412156560520495
3.9069774865279765,3.4029380164689402,3.3425859020454154,-2.0701854559207935,3.4212590082658876,5.2599845875612425
3.941006866692666,3.437150606551599,3.3218840474862072,-2.017585610045181,3.4975258236578846,5.764871853954353
3.9753783727581817,3.472125864788178,3.3017081913857553,-1.9599368915056374,3.6120819038705747,6.260485149443835
4.010099631406064,3.5082466838268838,3.282108822470699,-1.897332040011199,3.762840022143415,6.752774057193284
4.045182098244332,3.5458750840483177,3.263135502070587,-1.8298042994392663,3.947355535578673,7.248417235056952
4.080640849084816,3.5853486394041045,3.2448374590761944,-1.7573201270886967,4.163135717324284,7.7543701006998305
4.116494335478857,3.6269799965773473,3.2272642578053072,-1.6797764260816983,4.407835991210567,8.277562170808832
4.15276413544463,3.671058356489453,3.2104664935444904,-1.59700080437361,4.6793625294336225,8.824715254270506
4.1894747190095245,3.7178519817837894,3.1944964855007543,-1.5087536518309048,4.975903690161887,9.402248662411258
4.226653238827362,3.7676110186854084,3.179408948982445,-1.4147311652067922,5.295910566645209,10.016239921958691
4.264329349014216,3.8205701243518604,3.165261637330377,-1.3145687659872052,5.6380425095980575,10.672414928300762
4.302535050257735,3.876950549447841,3.152115949670505,-1.2078446167041976,6.001088727149731,11.376147456155381
4.341304555752213,3.936961436719338,3.1400375035034633,-1.0940831421426438,6.383872892695389,12.132453162927503
4.3806741701194065,4.000800165646292,3.129096672082037,-0.9727586105133688,6.78514443924062,12.945967242747914
4.420682171775869,4.068651610038699,3.119369085976903,-0.8432989380858896,7.203457914581731,13.820897753178524
4.461368687876257,4.140686189184516,3.110936096596044,-0.7050899605541043,7.637040313039589,14.760948594256764
4.502775549768102,4.217056592314911,3.103885196990503,-0.5574804746115367,8.083645562898136,15.769207496147638
4.544946115691251,4.297893047943893,3.0983103922443878,-0.3997883996500603,8.540395238557185,16.84799549792405
4.58792504617069,4.383297000329464,3.0943125082478873,-0.2313084446708198,9.003605030824094,17.998675587169835
4.631758016173984,4.473333050637705,3.091999423801179,-0.05132168879912144,9.468597536192313,19.22141970291877
4.676491346680361,4.568019025999628,3.0914862069131877,0.14089250823006627,9.929503530281508,20.514935436085395
4.722171536940357,4.667314061302443,3.0928951319954883,0.34604186259092024,10.379056088192575,21.876156700716255
4.768844677553382,4.771104622184369,3.0963555506213973,0.5648034295980828,10.808384694209792,23.299906533612564
4.816555723775226,4.879188469126467,3.1020035849173784,0.7978024949342084,11.206819770559763,24.778545032753343
4.86534760846649,4.991256666832064,3.1099816098667206,1.0455879452617418,11.56172167324667,26.301621119808747
4.915260175134811,5.106873883564531,3.120437489319338,1.3086041564598294,11.858351838854233,27.85555293082304
4.966328913970456,5.225457401953073,3.133523530883936,1.5871596857680599,12.07980695002917,29.423367544191816
5.018583487989987,5.3462554714533645,3.149395127741617,1.881393361209978,12.207039106268688,30.98453550077167
5.07204604270452,5.468325862516052,3.168209061353717,2.1912387162176947,12.218985347909088,32.514937989340076
5.12672930132968,5.590515715995142,3.1901214485158937,2.5163880961110956,12.092827839851088,33.98700344240833
5.182634458489632,5.711443994393653,3.2152853294770045,2.856258130535179,11.804401169981997,35.37004463272633
5.239748898433569,5.829488006093473,3.2438479107823563,3.2099585768624426,11.328755606842073,36.63081682366647
5.298043778494503,5.942775562161893,3.2759474965509807,3.5762667450991072,10.64087548785212,37.73430276776125
5.357471534116122,6.049184317040415,3.3117101640019717,3.9536097727767197,9.716541562473441,38.64471329635332
5.417963377286527,6.146349732665149,3.351246261729739,4.340056905740253,8.533316977207749,39.32667601987682
5.4794268746131785,6.2316829024372264,3.3946468307871416,4.733323665939022,7.071630522616816,39.74657300438704
5.54174370363755,6.302399207663394,3.441980067446532,5.130789395982892,5.3159288068545605,39.87398446764232
5.604767695714184,6.35555849573194,3.4932879614063608,5.529529240659315,3.2558705018213385,39.68320087368545
5.668323280671503,6.388117200750154,3.548583253812954,5.9263612493961695,0.8875376996516824,39.154778309489046
5.732204452679005,6.39699257774667,3.607846866306916,6.31790903249106,-1.7853636113603337,38.27712571641623
5.796174378456471,6.379138941633067,3.6710259566318264,6.700680289655222,-4.750356402067203,37.04811809977655
5.859965767872802,6.331635377612395,3.7380327595283784,7.071161470652987,-7.9851724925741685,35.476716976871764
5.923282121648926,6.251783652686654,3.8087443742349083,7.425928640421705,-11.45698219673183,33.58454082508378
5.985799958175792,6.137213830719335,3.883003660639125,7.761774048672542,-15.122056495621697,31.40726478563554
6.047172096482986,5.985993265763118,3.9606214011258505,8.075846696528897,-18.92609924809132,28.995652854304943
6.107032029140617,5.796732273282204,4.0413798680911395,8.365803225071947,-22.80551153075259,26.41596265097844
6.16499935187344,5.568677157974679,4.125037900341859,8.62996285158173,-26.689817084783257,23.749446890278524
6.220686123453186,5.301778987126847,4.211337528857676,8.867457320484515,-30.50536718321173,21.090739951036948
6.2737039133244545,4.9967253152947295,4.300012102062522,9.078364719994886,-34.18025553553603,18.545079822483366
6.323671166477402,4.654922759939369,4.3907957492624705,9.263815518219719,-37.650139506591124,16.224563039118763
6.370220394076795,4.278421364873458,4.483433904444667,9.426061148610906,-40.86444274336012,14.243915854892023
6.413004607725529,3.869776937439857,4.5776945159307765,9.568500307159827,-43.792280567906445,12.71651589239768
6.451702377099928,3.431854131760793,4.673379519002375,9.695665466083803,-46.427464789457396,11.751539986217404
6.486020918417537,2.967579483866219,4.770336173663213,9.813180865945977,-48.79212840316461,11.453098448061708
6.515696713256199,2.4796581998345726,4.868467982322673,9.927711850426594,-50.93882207813697,11.922041400551466
6.540493295254545,1.970269979053203,4.967745100826939,10.046932264432108,-52.9512714295658,13.260821953363797
6.560195995045077,1.4407572647575448,5.06821442347126,10.179540483965747,-54.944190128465344,15.581389417729598
6.574603567692653,0.8913153634728914,5.170009828310918,10.335354378143043,-57.0623854645548,19.01544984295392
6.583516721327381,0.32069150882734343,5.273363372092349,10.525508876572582,-59.478437171733006,23.725097528928607
6.5867236364156545,-0.2740928628899867,5.378618460858075,10.762759851861867,-62.38547116238097,29.908424113480386
6.583982707786754,-0.8979475745137965,5.486246059376693,11.06184409299667,-65.97443859648725,37.78566921588627
6.575003232041617,-1.557691960478669,5.59686450030666,11.439700785155534,-70.36744512305108,47.52777535767023
6.55942631243683,-2.26136641170918,5.711261508158215,11.914978538732235,-75.43520929981861,59.02982669814286
6.536812648319739,-3.015718504707366,5.830411293545538,12.505276805713663,-80.33132587398309,71.29866158727876
6.506655463272665,-3.819031763447197,5.955464061602674,13.218263421586451,-82.43232127630627,81.01688263108825
6.468465145638193,-4.64335497621026,6.087646695818538,14.028432247897333,-75.52947377897247,80.03639536484566
6.42203159587609,-5.398649713999984,6.227931018297512,14.82879620154579,-49.33813367288314,54.57454386219229
6.368045098736091,-5.892031050728816,6.37621898031297,15.374541640167713,1.4648750020076555,-2.6590029789181586
6.309124788228803,-5.87738230070874,6.5299643967146475,15.347951610378532,58.02532559047381,-66.57682125450344
6.250350965221715,-5.297129044804001,6.683443912818433,14.682183397833498,89.50299441059919,-96.83404798980922
6.197379674773675,-4.40209910069801,6.830265746796768,13.713842917935406,93.54470180384061,-91.98711456765946
6.153358683766695,-3.4666520826596035,6.967404175976123,12.79397177225881,86.2210717437744,-74.12813663502291
6.118692162940099,-2.6044413652218594,7.095343893698711,12.052690405908582,77.49811649547007,-56.11671714331324
6.09264774928788,-1.8294602002671587,7.215870797757797,11.49152323447545,70.3215976358716,-41.3225524825329
6.074353147285208,-1.1262442239084427,7.330786030102552,11.078297709650121,64.99487068096741,-29.792428838958433
6.063090705046124,-0.4762955170987686,7.441569007199053,10.780373421260537,61.17320695542117,-20.893330621407316
6.058327749875136,0.13543655245544317,7.549372741411658,10.571440115046464,58.44374047990914,-14.02316223042269
6.05968211539969,0.7198739572545345,7.655087142562123,10.431208492742236,56.45324653675336,-8.735759767327155
6.0668808549722355,1.2844064226220682,7.759399227489546,10.343850895068964,54.918204924388284,-4.725430547617837
6.079724919198457,1.833588471865951,7.862837736440235,10.296596589592786,53.61133123642252,-1.7889245098694746
6.098060803917116,2.369701784230176,7.965803702336163,10.27870734449409,52.34836349424291,0.208709765147279
6.121757821759418,2.893185419172605,8.068590775781104,10.280794442145563,50.97978564150356,1.3608223779298523
6.150689675951145,3.4029832755876406,8.171398720202559,10.294402665924862,49.38724334986749,1.7395457131300731
6.184719508707021,3.8968557090863154,8.274342746861807,10.311798123056162,47.48322963206638,1.4111932168566574
6.223688065797884,4.3716880054069795,8.377460728092368,10.325910055224728,45.21237799192066,0.4473379788423539
6.267404945851953,4.823811785326186,8.480719828644615,10.330383435013152,42.55272993614679,-1.0683194747445164
6.315643063705215,5.249339084687654,8.584023662994746,10.319700240265707,39.51556065679051,-3.037373851778607
6.368136454552092,5.644494691255559,8.687220665397403,10.28932650174792,36.142785699364005,-5.348303803225642
6.424581401464647,6.0059225482492,8.790113930414883,10.235843463715664,32.501615081609046,-7.881611112328068
6.484640626947139,6.330938699065291,8.89247236505204,10.157027352592383,28.67685087175785,-10.51732395492983
6.547950013937792,6.617707207782869,8.994042638577964,10.051854113043085,24.76184716492498,-13.143272605842684
6.614127086015621,6.865325679432119,9.094561179708395,9.920421386984659,20.849482365002032,-15.66249301563152
6.682780342809942,7.073820503082139,9.193765393578241,9.763796456828343,17.024442979704816,-17.998457699686888
6.7535185478407636,7.244064932879187,9.291403358146525,9.583811879831474,13.357734812404336,-20.097459512120384
6.8259591971695555,7.37764228100323,9.387241476944839,9.38283728471027,9.903781463967267,-21.92816894993308
6.899735619979587,7.476680095642903,9.481069849791941,9.163555595210939,6.699933640620911,-23.478940522824928
6.974502420936016,7.543679432049112,9.57270540574405,8.92876618998269,3.767839628265063,-24.75373692810763
7.049939215256507,7.581357828331763,9.661993067643877,8.681228820701614,1.1159714541452634,-25.76756320670459
7.125752793539824,7.592517542873216,9.748805355850893,8.423553188634568,-1.2573652701743856,-26.54213255715788
7.201677968968556,7.579943890171472,9.833040887737239,8.158131863062989,-3.3610594942708953,-27.102227097305164
7.277477407870271,7.546333295228763,9.914622206367868,7.887109592089938,-5.208592136890272,-27.472961371873836
7.352940740822559,7.49424737385986,9.993493302288767,7.612379978371199,-6.8159595971422,-27.677957714524524
7.427883214561158,7.426087777888438,10.06961710207248,7.335600401225953,-8.200149956745436,-27.738318021618277
7.502144092340042,7.344086278320984,10.142973106084739,7.0582172210097704,-9.378117915282413,-27.67221871578476
7.575584955123252,7.25030509916816,10.213555278294837,6.781495033851923,-10.366165920068061,-27.494946176043403
7.648088006114933,7.146643439967479,10.281370228633357,6.506545572091489,-11.179629741072365,-27.219208992833114
7.7195544405146075,7.034847142556756,10.34643568435427,6.234353482163158,-11.832774780864959,-26.855595298405387
7.7899029119401755,6.916519394748106,10.408779219175901,5.965797529179104,-12.338825437158185,-26.4130777003925
7.859068105887657,6.793131140376524,10.468437194467693,5.701666752175179,-12.710067855190228,-25.89949930769781
7.926999417291422,6.666030461824622,10.525453861989446,5.442671759098201,-12.957983134024474,-25.321999644457925
7.993659721909668,6.536450630484378,10.579880579580427,5.189451762653622,-13.093382075025763,-24.687358577155862
8.059024228214511,6.40551680973412,10.631775097206964,4.942578176882064,-13.126523586304472,-24.002250401301303
8.123079396311853,6.274251573871076,10.681200878975785,4.7025556728690505,-13.067207141956494,-23.27340995234194
8.185821912050564,6.1435795024515105,10.728226435704476,4.469821573345631,-12.92483569844724,-22.507719005775783
8.247257707075079,6.014331145467038,10.772924651437933,4.244744383287873,-12.708449661417555,-21.712225129629285
8.307401018529749,5.887246648852862,10.815372095270812,4.02762213199158,-12.426735272191577,-20.894107167261623
8.366273485018278,5.762979296130947,10.855648316590727,3.8186810603189643,-12.088012453997777,-20.060602113551006
8.423903277979587,5.642099171590969,10.893835127193917,3.618075039183454,-11.700207959704159,-19.218907643218422
8.480324269695497,5.525097091993928,10.93001587758575,3.42588596275127,-11.270819783165967,-18.376073231088945
8.535575240615437,5.412388894162268,10.964274737213264,3.2421252304403803,-10.80687839552739,-17.538890912735358
8.58969912955706,5.3043201102069935,10.996695989517669,3.0667363213130265,-10.314909593170617,-16.7137944958597
8.64274233065913,5.201171014275287,11.027363352730799,2.8995983763544295,-9.800902734201372,-15.906773658505818
8.694754040801884,5.103161986933274,11.056359336494342,2.7405306397693714,-9.270287023646892,-15.123307047736532
8.745785660671217,5.010459116696805,11.083764642892035,2.589297569292006,-8.727917395991739,-14.368316376531672
8.795890251838186,4.923179942736888,11.109657618584956,2.4456144055266895,-8.178070527025973,-13.646141720091189
8.845122051265555,4.841399237466628,11.134113762640222,2.3091529883257778,-7.624450648414951,-12.960536801945699
8.893536043640221,4.765154730982478,11.15720529252348,2.179547620306321,-7.070204173447586,-12.314682057014517
8.941187590950046,4.694452689248002,11.179000768726544,2.0564007997361755,-6.517941681069249,-11.711212646433049
8.988132117842525,4.62927327243731,11.199564776723905,1.939288673271845,-5.969765536622802,-11.152258332435911
9.034424850566898,4.569575617071082,11.218957663456624,1.827766089947486,-5.427301325862837,-10.639492138064004
9.080120606737609,4.5153026038124535,11.2372353243561,1.7213711685668458,-4.891731309289064,-10.17418494602029
9.125273632775732,4.466385290719563,11.254449036041768,1.6196293191066429,-4.363828229143323,-9.757263565124875
