th1 (rad),w1 (rad/s),th2 (rad),w2 (rad/s)
5.944889734760798,-2.916777738019505,1.5921818692696725,-1.3092569966475933
5.915721957380603,-2.906874895948906,1.5790892993031966,-1.4833808670372135
5.886653208421114,-2.892896824931475,1.5642554906328245,-1.6548516125758945
5.857724240171799,-2.8743871797857534,1.5477069745070655,-1.8232170618886991
5.828980368373942,-2.8509142125014293,1.5294748038881785,-1.9880213592825322
5.800471226248927,-2.82207538698807,1.5095945902953531,-2.148813277356472
5.772250472379047,-2.7875018619002203,1.4881064575217884,-2.305154561987925
5.744375453760044,-2.74686272637811,1.4650549119019092,-2.4566281898614823
5.716906826496263,-2.6998688801024557,1.4404886300032944,-2.6028464232299844
5.689908137695238,-2.6462764557348444,1.4144601657709945,-2.7434585530000892
5.66344537313789,-2.5858896878600137,1.3870255802409936,-2.8781582280415985
5.6375864762592895,-2.5185631376325293,1.3582439979605776,-3.0066902747768856
5.6124008448829645,-2.4442031866387888,1.3281770952128087,-3.128856916201869
5.587958813016576,-2.362768717715069,1.29688852605079,-3.2445233038666372
5.564331125839425,-2.274270905733395,1.2644432930121237,-3.3536222810825573
5.5415884167820915,-2.1787720490257096,1.230907070201298,-3.456158302383645
5.519800696291834,-2.076383383470119,1.1963454871774617,-3.5522104450167644
5.499036862457133,-1.9672618372818809,1.160823382727294,-3.6419344648810887
5.479364244084314,-1.8516057055947577,1.1244040380784832,-3.7255638733723733
5.4608481870283665,-1.7296492495265414,1.0871483993447595,-3.8034100437538028
5.4435516945331015,-1.6016562532307632,1.0491142989072215,-3.8758613957500683
5.427535132000794,-1.4679126022261237,1.0103556849497208,-3.9433817537982483
5.412856005978533,-1.3287179741909045,0.9709218674117384,-4.006508025632158
5.3995688262366235,-1.1843767561977743,0.9308567871554168,-4.065847400839082
5.387725058674646,-1.0351883168846134,0.8901983131470259,-4.122074320686391
5.3773731755058,-0.881436765609846,0.848977569940162,-4.175927518053189
5.368558807849701,-0.7233803213534937,0.8072182947596301,-4.228207467506407
5.361325004636166,-0.5612403912357227,0.7649362200845661,-4.279774619088515
5.355712600723809,-0.39519042257958725,0.7221384738936809,-4.331548814799336
5.351760696498013,-0.22534454545673477,0.6788229857456876,-4.384510304247058
5.349507251043446,-0.05174596833422865,0.634977882703217,-4.439702785609006
5.348989791360103,0.12564496629059047,0.590580854847127,-4.498238898533753
5.350246241023009,0.3069632072382005,0.5455984658617894,-4.561308581806398
5.353315873095391,0.49245206690582377,0.4999853800437254,-4.630190667569196
5.358240393764449,0.6824770830058786,0.45368347336803344,-4.706267987920039
5.365065164594507,0.8775406961414047,0.40662079348883307,-4.7910460638046235
5.373840571555921,1.0782974807377497,0.35871033285078685,-4.886175025480377
5.384623546363299,1.2855690609243602,0.3098485825959831,-4.993473582943653
5.397479236972543,1.5003566574447815,0.25991384676654655,-5.114952263028918
5.4124828035469905,1.7238469705833583,0.20876432413625737,-5.252830098297687
5.429721273252824,1.9574029516542446,0.1562360231532805,-5.4095332996068635
5.449295302769366,2.202523441822721,0.10214069015721186,-5.587654056102456
5.4713205371875935,2.4607420981590233,0.046264149596187305,-5.7898288756795235
5.495927958169184,2.733412469245945,-0.011634139160607931,-6.018463116310752
5.523262082861644,3.0212873783622127,-0.07181877032371545,-6.275174161364525
5.553474956645266,3.3237442292223593,-0.1345705119373607,-6.559745823742521
5.58671239893749,3.6374475703247033,-0.2001679701747859,-6.86829978188313
5.6230868746407365,3.95424893427264,-0.2688509679936172,-7.19039615861689
5.662629363983463,4.258419778485859,-0.3407549295797861,-7.505177855554198
5.705213561768321,4.524323427939269,-0.41580670813532805,-7.778069184863905
5.750456796047714,4.7175929062016415,-0.4935873999839671,-7.962267107606429
5.797632725109731,4.804120775462314,-0.5732100710600314,-8.011006364151221
5.845673932864353,4.76662557548526,-0.6533201347015436,-7.900301527976373
5.893340188619206,4.617158318071462,-0.7323231499813073,-7.6460808388588815
5.93951177179992,4.391603279856763,-0.8087839583698961,-7.296511030778993
5.983427804598488,4.130668770075384,-0.8817490686776861,-6.905894478519007
6.024734492299242,3.8650974877599356,-0.9508080134628761,-6.51461258119878
6.0633854671768415,3.612432483891675,-1.0159541392748639,-6.145001123907637
6.099509792015758,3.380343401513767,-1.0774041505139402,-5.806103379013581
6.133313226030896,3.1708102415178003,-1.135465184304076,-5.499455662775506
6.165021328446073,2.9830536686806655,-1.190459740931831,-5.223074763973188
6.19485186513288,2.815180578190012,-1.2426904885715628,-4.973659690028203
6.22300367091478,2.6650011941185063,-1.292427085471845,-4.747659885501514
6.249653682855965,2.5303956005800647,-1.3399036843268601,-4.541736255272148
6.274957638861766,2.4094557454381595,-1.3853210468795816,-4.3529252939039145
6.299052196316147,2.3005223351175546,-1.4288502998186208,-4.178668063265402
6.322057419667322,2.202175960724567,-1.4706369804512749,-4.016783141429349
6.344079179274568,2.1132107854467246,-1.5108048118655684,-3.8654205366540295
6.365211287129036,2.0326037753530413,-1.5494590172321088,-3.7230129901284026
6.385537324882566,1.9594850499692704,-1.5866891471333928,-3.5882313319228842
6.405132175382259,1.8931114398271227,-1.6225714604526216,-3.459946061594308
6.4240632897805305,1.8328437514314002,-1.6571709210685646,-3.337195351897935
6.4423917272948446,1.7781275656420512,-1.690542874587544,-3.2191588857120603
6.460173002951265,1.7284771505276293,-1.7227344634446646,-3.1051366897456916
6.477457774456542,1.6834620202641182,-1.7537858303421217,-2.9945321173166657
6.494292394659183,1.6426957051647086,-1.7837311515152883,-2.8868382124877896
6.51071935171083,1.6058263612983619,-1.8125995336401661,-2.7816267935193144
6.526777615323814,1.572528917087307,-1.8404158015753593,-2.6785396968477295
6.542502904494687,1.5424985183291604,-1.8672011985438366,-2.5772817132700414
6.557927889677979,1.515445088347484,-1.8929740156765371,-2.477614823480091
6.573082340561453,1.4910888654451566,-1.9177501639113381,-2.3793534018814726
6.587993229215905,1.469156815739713,-1.9415436979301528,-2.2823601083363574
6.602684797373302,1.4493798464449068,-1.9643672990135164,-2.1865422301456325
6.617178595837751,1.4314907634760754,-1.9862327213149726,-2.0918482738511677
6.6314935034725115,1.415222928654954,-2.0071512040534842,-1.9982646407437457
6.6456457327590615,1.400309576552825,-2.0271338504609218,-1.9058122530465944
6.65964882852459,1.3864837500008795,-2.0461919729913878,-1.8145430308104968
6.673513666024599,1.3734788075169182,-2.0643374032994926,-1.7245361531426133
6.687248454099768,1.3610294465331618,-2.0815827648309186,-1.635894071393789
6.7008587485651,1.348873174730757,-2.0979417055448564,-1.548738275647145
6.714347480312408,1.3367521495055297,-2.113429088301328,-1.4632048480862694
6.727715001807463,1.324415294177242,-2.1280611367821907,-1.3794398660362064
6.740959154749236,1.3116205905181801,-2.1418555354425526,-1.2975947419900487
6.754075360654418,1.2981374418201674,-2.154831482862453,-1.2178216061785407
6.767056735072619,1.2837490000059737,-2.1670096989242382,-1.1402688479552405
6.779894225072678,1.2682543547359024,-2.1784123874037906,-1.0650769347224391
6.792576768620037,1.251470492066034,-2.189063156751015,-0.9923746212330373
6.805091473540697,1.233233944471879,-2.198986902963345,-0.9222756484881984
6.8174238129854166,1.2134020720014982,-2.2082096594482272,-0.8548760113746867
6.829557833705431,1.191853934675654,-2.216758419561974,-0.790251849425586
6.8414763730521875,1.1684907375430886,-2.22466093805623,-0.728457987731751
6.853161280427618,1.1432358505516051,-2.2319455179335477,-0.6695271272488039
6.864593638933134,1.116034424282084,-2.238640789206036,-0.6134696575624395
6.875753983175955,1.0868526385542463,-2.2447754857816604,-0.5602740422884236
6.886622509561498,1.0556766332373406,-2.250378226204545,-0.5099077089276722
6.897179275893872,1.0225111789456602,-2.2554773032938216,-0.46231836188566483
6.907404387683329,0.9873781496796474,-2.260100486912678,-0.41743562970085507
6.9172781691801255,0.9503148601960746,-2.264274843209687,-0.37517295506009507
6.926781317782086,0.9113723284810089,-2.268026572760288,-0.33542963831124073
6.935895041066896,0.8706135188143157,-2.2713808691434005,-0.29809295108178335
6.9446011762550395,0.8281116142614341,-2.274361798654218,-0.2630402453293065
6.952882292397653,0.7839483596948159,-2.2769922011075114,-0.23014099372394015
6.960721775994601,0.7382125082506735,-2.279293611044751,-0.19925870880245783
6.968103901077108,0.6909983959801006,-2.2812861981327752,-0.17025270006992063
6.975013885036909,0.6424046617523378,-2.2829887251334746,-0.1429796395441209
6.981437931654432,0.59253312248785,-2.2844185215289157,-0.11729491669065337
6.9873632628793105,0.5414878077062273,-2.285591470695822,-0.09305377298905704
6.992778140956373,0.4893741522413658,-2.2865220084257127,-0.07011221434845223
6.9976718824787865,0.4362983418020291,-2.2872231305691972,-0.04832770621397656
7.002034865896807,0.3823668027827737,-2.287706407631337,-0.027559661520461968
7.005858533924634,0.3276858252643135,-2.2879820042465417,-0.007669735766769374
7.009135392177277,0.27236130636820016,-2.2880587016042093,0.011478053448109666
7.011859005240959,0.21649859992380469,-2.2879439210697283,0.03001736289871017
7.014023991240197,0.16020245764238028,-2.2876437474407414,0.04807969520734923
7.015626015816621,0.10357704655760672,-2.2871629504886677,0.06579468336897368
7.016661786282197,0.046726027281132405,-2.286505003654978,0.08329046582392584
7.0171290465550085,-0.010247322452543825,-2.2856720989967387,0.10069412928057354
7.017026573330483,-0.06723995448544723,-2.284665157703933,0.11813219634519134
7.016354173785628,-0.12414888270731061,-2.283483835740481,0.13573113494285843
7.015112684958555,-0.1808710168397049,-2.2821265243910527,0.15361786645841138
7.0133039747901575,-0.2373030131222595,-2.2805903457264685,0.17192024946712922
7.010930944658935,-0.29334115756844586,-2.278871143231797,0.190767515866135
7.007997533083251,-0.34888129754400904,-2.2769634680731357,0.21029063619374938
7.004508720107811,-0.4038188374720293,-2.2748605617111983,0.23062259099829308
7.00047053173309,-0.4580488144240252,-2.2725543358012152,0.2518985253813702
6.99589004358885,-0.5114660691374819,-2.2700353505474014,0.2742557644115904
6.990775382897475,-0.563965527510761,-2.2672927929032856,0.29783366812539624
6.985135727622367,-0.6154426067558552,-2.2643144562220314,0.32277330646459007
6.978981301554809,-0.6657937590163373,-2.2610867231573857,0.349216936921089
6.972323363964645,-0.7149171632553573,-2.257594553788175,0.3773072710479754
6.965174192332092,-0.7627135734628407,-2.2538214810776953,0.40718652052222537
6.9575470565974635,-0.8090873276121519,-2.249749615872473,0.43899521925232626
6.949456183321342,-0.8539475172319516,-2.2453596636799498,0.4728708252095653
6.940916708149023,-0.8972093119104411,-2.240630955427854,0.508946114249406
6.931944615029918,-0.9387954265407509,-2.23554149428536,0.5473473881048716
6.922556660764511,-0.9786377117538329,-2.2300680204043113,0.5881925297779852
6.912770283646973,-1.0166788399744158,-2.2241860951065315,0.6315889513805153
6.902603495247228,-1.0528740511955326,-2.2178702055927264,0.6776314915700217
6.8920747547352725,-1.0871929143367822,-2.2110938906770263,0.7264003314128662
6.881202825591905,-1.1196210524846304,-2.2038298873628976,0.7779590079516514
6.870006615067059,-1.15016177405823,-2.196050297283381,0.8323526130150046
6.8585049973264764,-1.1788375477071327,-2.187726771153231,0.8896062698858146
6.8467166218494055,-1.2056912572344656,-2.178830708454373,0.9497239813804446
6.8346597092770605,-1.2307871746854764,-2.1693334686405685,1.0126879388741346
6.8223518375302055,-1.2542115954260946,-2.159206589251827,1.0784583722943177
6.809809721575944,-1.276073088797466,-2.148422005528884,1.1469740059400197
6.79704899068797,-1.296502331692387,-2.1369522654694837,1.2181531645041321
6.784083967371046,-1.3156515097140247,-2.1247707338244424,1.2918955487502393
6.770927452273906,-1.3336932906238352,-2.11185177833694,1.3680846723388538
6.7575905193676675,-1.3508193963995774,-2.0981709316135513,1.4465909221840547
6.744082325403672,-1.3672388219862708,-2.083705022391711,1.5272751766403818
6.730409937183809,-1.3831757691916344,-2.068432270625307,1.609992891068381
6.716578179491893,-1.3988673816544803,-2.052332341714623,1.6945985410659714
6.7025895056753475,-1.4145613801176808,-2.0353863563039636,1.7809503016614765
6.68844389187417,-1.4305137054579913,-2.017576853287349,1.8689148372343058
6.674138754819591,-1.446986279643199,-1.9988877049150058,1.9583720823293382
6.659668892023159,-1.4642449921264333,-1.9793039840917124,2.0492199075671036
6.645026442101895,-1.482558011801774,-1.9588117850160414,2.141378586531514
6.6302008619838775,-1.50219451363996,-1.9373979991507262,2.234795007305805
6.615178916847478,-1.5234238959270177,-1.915050049077668,2.3294466043722557
6.599944677888208,-1.5465155502391676,-1.8917555830339454,2.4253450209734475
6.584479522385816,-1.5717392335129394,-1.867502132824211,2.5225395470141527
6.568762130050687,-1.5993660812941601,-1.8422767373540694,2.6211204118110674
6.552768469237746,-1.6296702947348476,-1.8160655332359588,2.721222043647642
6.536471766290397,-1.6629315321373395,-1.7888533127994823,2.8230264389331876
6.519842450969024,-1.6994380395128044,-1.7606230484101504,2.926766813156663
6.502848070573895,-1.7394905641383074,-1.7313553802785837,3.032731734633694
6.485453164932513,-1.7834071106050895,-1.7010280629322467,3.141269971503372
6.467619093826462,-1.8315286201978265,-1.669615363217213,3.2527963139132092
6.449303807624484,-1.8842256810628157,-1.6370874000780808,3.3677986680061602
6.430461550813856,-1.9419064072245664,-1.6034094133980192,3.486846756595848
6.411042486741611,-2.0050256564389883,-1.5685409458320607,3.6106028019456646
6.390992230177221,-2.0740957848304395,-1.532434917812604,3.7398346040096255
6.370251272328916,-2.1496991499003526,-1.4950365717725078,3.875431451245348
6.348754280829913,-2.232502552908744,-1.4562822572600544,4.018423286251658
6.326429255300825,-2.3232737189571826,-1.4160980243975378,4.170003446435922
6.303196518111253,-2.4228996769015625,-1.3743979899331786,4.331555016667345
6.278967521342238,-2.5324063873151856,-1.331082439766505,4.504680187015193
6.253643457469086,-2.6529779238061573,-1.2860356378963531,4.691230664393458
6.227113678231024,-2.7859714716775428,-1.2391233312524186,4.893334501942623
6.1992539635142485,-2.932920495799194,-1.1901899862329923,5.113409485503109
6.169924758556257,-3.0955110430244943,-1.1390558913779611,5.354143234682871
6.138969648126012,-3.2755024057011775,-1.0855144590311325,5.618401431719077
6.1062146240690005,-3.474538375253873,-1.0293304447139418,5.908991209984222
6.071469240316461,-3.693751613932439,-0.9702405326140995,6.2281461876015465
6.034531724177137,-3.9329932472723432,-0.907959070738084,6.576501313813312
5.995201791704414,-4.189426278639639,-0.8421940575999509,6.951193705965689
5.9533075289180175,-4.455164344944038,-0.7726821205402941,7.34264101741086
5.908755885468577,-4.713847629395557,-0.6992557103661855,7.729830765086876
5.861617409174621,-4.937098579816055,-0.6219574027153167,8.075399578739122
5.812246423376461,-5.084369847773074,-0.5412034069279256,8.325339858600417
5.76140272489873,-5.112429076777557,-0.4579500083419214,8.421965304611817
5.710278434130954,-4.996563575131927,-0.37373035529580323,8.332990034300822
5.660312798379635,-4.749256008452398,-0.290400454952795,8.076953098092075
5.612820238295111,-4.414583630278377,-0.20963092397187422,7.715052256181924
5.568674401992327,-4.042401675656288,-0.13248040141005496,7.315425551031784
5.528250385235764,-3.6685401285963737,-0.059326145899737115,6.926236118794572
5.4915649839498,-3.311630080064861,0.009936215288208608,6.571812601164779
5.458448683149151,-2.978405270512761,0.0756543412998564,6.260260749144304
5.428664630444024,-2.6693480005859023,0.13825694879129946,5.991325594817295
5.401971150438165,-2.382266052897946,0.19817020473947242,5.761289126005181
5.378148489909186,-2.114124364059412,0.2557830959995242,5.565430639974737
5.357007246268592,-1.861867456808641,0.3114374023992716,5.399098500661833
5.338388571700505,-1.6227408668219465,0.3654283874058899,5.258102997844931
5.322161163032286,-1.3943848299768062,0.4180094173843392,5.138806854058894
5.308217314732517,-1.1748326518811025,0.46939748592492814,5.038093465355317
5.296468988213706,-0.9624743079551858,0.5197784205784813,4.953293935669827
5.286844245134154,-0.7560115661048142,0.5693113599351796,4.882107369057621
5.279284129473106,-0.5544151803023276,0.6181324336257558,4.8225278106458145
5.273739977670083,-0.35688767938491783,0.6663577117322139,4.772782038367755
5.270171100876233,-0.1628322688705224,0.7140855321158914,4.731278616793154
5.268542778187528,0.02817282221767145,0.761398318283823,4.696567228845997
5.268824506409705,0.21639559541211623,0.8083639905722829,4.667306929573432
5.270988462363826,0.40196821545163974,0.8550370598680173,4.642241999328256
5.275008144518343,0.5849025920698456,0.9014594798612998,4.620184237530373
5.280857170439041,0.7651044254016593,0.9476613222366036,4.600000715956942
5.288508214693057,0.9423863616260603,0.993661329396173,4.580606157465942
5.297932078309318,1.1164807399516232,1.0394673909708325,4.560959209986713
5.309096885708834,1.287052254087946,1.0850769830706997,4.5400619490941985
5.321967408249713,1.453710703626139,1.1304776025616416,4.516961974746153
5.3365045152859745,1.6160238762106482,1.1756472223091032,4.4907564808203775
5.352664754048081,1.7735304840255661,1.220554787117307,4.4605976826588325
5.370400058888336,1.9257529827913071,1.2651607639438953,4.425698999871783
5.389657588716249,2.0722100330715145,1.309417753942613,4.385341419145593
5.410379689046964,2.212428326119608,1.353271168134069,4.338879511600576
5.43250397230816,2.345953491600276,1.3966599632500747,4.285746654282652
5.455963507224163,2.4723598313297614,1.4395174297929012,4.225459104206678
5.48068710553746,2.5912586775580526,1.481772020834968,4.1576186903646475
5.506599692313041,2.7023052491912036,1.5233482077386145,4.081914015222233
5.533622744804953,2.805203965456339,1.564167347890837,3.998120181323782
5.561674784459517,2.8997122635465136,1.6041485497040746,3.9060971691627624
5.590671907094982,2.985643044766433,1.6432095213957023,3.805787079201595
5.6205283375426465,3.062865934260196,1.6812673921877184,3.697210506355213
5.651156996885248,3.1313075767767944,1.7182394972512705,3.5804623356454646
5.682470072653016,3.190951202531458,1.754044120607725,3.4557072334653096
5.714379584678331,3.2418356837157383,1.7886011929423782,3.3231750642185793
5.746797941515488,3.2840542671482975,1.821832943584564,3.1831563944220167
5.779638484186971,3.3177531176944566,1.853664507528784,3.0359981651562964
5.812816015363915,3.3431297475098694,1.884024489180347,2.8820995294170464
5.846247312839014,3.36043134542409,1.9128454844745175,2.7219077735811474
5.879851626293255,3.36995296604156,1.940064562210329,2.555914180751979
5.91355115595367,3.3720354955090923,1.9656237040178488,2.3846496550182326
5.947271510908761,3.367063284905444,1.9894702005680311,2.2086799138815274
5.980942143757816,3.355461335437824,2.0115569997068463,2.0286000725626345
6.014496757112195,3.337691932548981,2.0318430004324726,1.8450284868349454
6.047873676437685,3.3142506569866295,2.050293285300822,1.6585997858382868
6.081016183007551,3.285661746259089,2.0668792831592047,1.4699571059457999
6.113872800470142,3.252472834524347,2.081578854218663,1.2797436224198269
6.146397528815386,3.215249156655971,2.0943762904428613,1.0885935577553694
6.1785500203819455,3.1745673565191614,2.105262226020415,0.8971229150552196
6.210295693947137,3.1310090843640475,2.114233455170967,0.7059202337373951
6.241605784790778,3.0851545988920592,2.121292657508341,0.5155376879821668
6.272457330779699,3.03757660294386,2.126448034388163,0.32648284328588034
