th1 (rad),w1 (rad/s),th2 (rad),w2 (rad/s),a1 (rad/s^2),a2 (rad/s^2)
2.8659570637785574,-1.6085963431519483,0.6707586266653065,2.229286522652731,-7.055821707873988,-8.11706989502187
2.849871100347038,-1.679154560230688,0.6930514918918338,2.148115823702512,-6.873720098410566,-7.713518412946537
2.833079554744731,-1.7478917612147937,0.7145326501288589,2.070980639573047,-6.70915076539169,-7.30734918575445
2.815600637132583,-1.8149832688687106,0.7352424565245894,1.9979071477155026,-6.563465533760054,-6.899472908763
2.797450804443896,-1.8806179242063112,0.7552215280017445,1.9289124186278725,-6.437643390017294,-6.4902194849987715
2.778644625201833,-1.9449943581064841,0.7745106521880232,1.8640102237778848,-6.332386043015608,-6.079436460762704
2.759194681620768,-2.0083182185366404,0.7931507544258021,1.8032158591702578,-6.248199704604779,-5.6665701892244495
2.7391114994354018,-2.0708002155826883,0.8111829130175047,1.7465501572780133,-6.185464778913068,-5.2507310818290245
2.7184034972795748,-2.132654863371819,0.8286484145902848,1.694042846459723,-6.144495325594235,-4.830744496585711
2.6970769486458566,-2.1940998166277614,0.845588843054882,1.6457354014938659,-6.125590183068139,-4.40518880721321
2.675135950479579,-2.2553557184584427,0.8620461970698207,1.6016835134217338,-6.129077568071159,-3.9724220729172477
2.6525823932949946,-2.3166464941391545,0.878063032204038,1.5619592926925612,-6.155354852722152,-3.530598538322933
2.629415928353603,-2.378200042666376,0.8936826251309636,1.5266533073093318,-6.204925089027535,-3.0776759734660626
2.6056339279269394,-2.440249293556651,0.908949158204057,1.4958765475746711,-6.278431720503305,-2.6114146404298464
2.581231434991373,-2.503033610761684,0.9239079236798037,1.4697624011703727,-6.376692799208684,-2.1293684656233784
2.556201098883756,-2.566800538753771,0.9386055476915074,1.448468716514139,-6.500735913807431,-1.6288688225601127
2.5305330934962185,-2.6318078978918455,0.9530902348566488,1.432180028288538,-6.651834922171707,-1.1070012101426354
2.5042150145173,-2.6983262471135627,0.9674120351395342,1.4211100161871115,-6.83154945275883,-0.5605750757034502
2.4772317520461646,-2.766641741641151,0.9816231353014053,1.4155042654300771,-7.0417679612002795,0.013912872729952569
2.449565334629753,-2.8370594212531537,0.9957781779557061,1.4156433941573767,-7.284754850112411,0.6203212182353527
2.4211947404172216,-2.9099069697542777,1.0099346118972798,1.4218466063397301,-7.563201695745877,1.2629109707603607
2.3920956707196788,-2.9855389867117363,1.0241530779606771,1.4344757160473338,-7.880281835665712,1.9463948398410489
2.3622402808525615,-3.0643418050683935,1.0384978351211505,1.4539396644457443,-8.239706230666302,2.6759841676393425
2.3315968628018777,-3.1467388673750567,1.0530372317656078,1.4806995061221377,-8.645776252648027,3.457425618918767
2.300129474128127,-3.233196629901537,1.0678442268268291,1.5152737623113255,-9.103425267954295,4.2970140350182895
2.2677975078291115,-3.3242308825810802,1.0829969644499424,1.5582439026615085,-9.61823460855996,5.201558508500558
2.234555199003301,-3.4204132286666797,1.0985794034765575,1.610259487746514,-10.196399179000595,6.178263478561557
2.200351066716634,-3.522377220456686,1.1146819983540226,1.6720421225321296,-10.84460102121652,7.234461913256488
2.165127294512067,-3.630823230668851,1.131402419579344,1.7443867416646945,-11.569721702670464,8.377097851056245
2.1288190622053786,-3.7465204476955556,1.148846286995991,1.828157720175257,-12.37828038471857,9.61179226193372
2.091353857728423,-3.870303251542741,1.1671278641977436,1.9242756427945942,-13.275415188357071,10.941227249927904
2.0526508252129956,-4.003057403426312,1.1863706206256897,2.033687915293873,-14.263119821571578,12.362433642846035
2.0126202511787326,-4.145688601642028,1.2067074997786285,2.1573122517223333,-15.337294645124935,13.862351694035974
1.9711633651623124,-4.299061548093277,1.2282806222958518,2.295935768662693,-16.48297222738713,15.410756783681208
1.9281727496813796,-4.463891270367148,1.2512399799824787,2.450043336499505,-17.666875576939706,16.949366504041286
1.8835338369777082,-4.640560026136544,1.2757404133474737,2.6195370015399178,-18.826424448028217,18.375906740434985
1.8371282367163426,-4.828824270616827,1.3019357833628729,2.8032960689442676,-19.854854911806193,19.522734232937772
1.7888399940101745,-5.027372819734889,1.3299687440523156,2.9985234112736454,-20.58419831087467,20.13263056667463
1.7385662658128256,-5.233214802843635,1.359953978165052,3.199849716940392,-20.773020507072893,19.841788624973297
1.6862341177843891,-5.440945007914364,1.3919524753344559,3.3982676031901247,-20.115264448707684,18.193512778349522
1.6318246677052455,-5.642097652401441,1.4259351513663572,3.5802027309736197,-18.297175002511985,14.721303799780486
1.575403691181231,-5.825069402426561,1.4617371786760933,3.7274157689714245,-15.125866296153175,9.135048050199032
1.5171529971569655,-5.976328065388092,1.4990113363658075,3.818766249473415,-10.707489619804116,1.57888795291833
1.4573897165030845,-6.083402961586133,1.5371989988605417,3.8345551290025983,-5.562155740937932,-7.200449310820669
1.396555686887223,-6.139024518995512,1.5755445501505676,3.7625506358943914,-0.5204896182340785,-15.997418929645628
1.335165441697268,-6.144229415177853,1.6131700565095115,3.602576446597935,3.6094725957381693,-23.622529489359675
1.2737231475454895,-6.1081346892204715,1.649195820975491,3.3663511517043383,6.37486082880777,-29.382433124184406
1.2126418006532849,-6.0443860809323935,1.6828593324925343,3.0725268204624943,7.765136761432394,-33.21402009912903
1.152197939843961,-5.966734713318069,1.7135846006971591,2.740386619471204,8.061115439097863,-35.47720220422583
1.0925305927107802,-5.886123558927091,1.7409884668918711,2.3856145974289458,7.629094179341055,-36.66392490891068
1.0336693571215094,-5.80983261713368,1.7648446128661606,2.018975348339839,6.790293224716279,-37.20986378166404
0.9755710309501726,-5.741929684886517,1.785034366349559,1.6468767105231985,5.778195504258085,-37.42962970848391
0.9181517341013075,-5.684147729843937,1.8015031334547909,1.2725804134383594,4.74513360190731,-37.522509791652205
0.8613102568028681,-5.636696393824864,1.8142289375891745,0.8973553155218373,3.7842843684986,-37.60127076994596
0.8049432928646194,-5.598853550139878,1.823202490744393,0.5213426078223777,2.950761373502953,-37.720750368651615
0.7489547573632206,-5.569345936404848,1.8284159168226166,0.14413510413586156,2.2771054051423194,-37.89928391542808
0.6932612979991721,-5.546574882353425,1.8298572678639753,-0.23485773501841922,1.7833221830286423,-38.13295555980994
0.6377955491756379,-5.5287416605231385,1.8275086905137912,-0.6161872906165187,1.4828810616329595,-38.40455535565081
0.5825081325704065,-5.513912849906809,1.821346817607626,-1.0002328441730268,1.3860281300857489,-38.68911033569439
0.5273690040713384,-5.500052568605952,1.8113444891658956,-1.3871239475299708,1.5013967274992561,-38.95737072190253
0.47236847838527884,-5.4850386013309596,1.7974732496905959,-1.776697654748996,1.8365582036972563,-39.17816011404069
0.41751809237196924,-5.466673019293987,1.779706273143106,-2.168479255889403,2.397917602762032,-39.320150115873744
0.36285136217902936,-5.442693843266366,1.7580214805842118,-2.5616807570481406,3.190211628089541,-39.353385468178644
0.3084244237463657,-5.410791726985471,1.7324046730137304,-2.955214611729927,4.215782726501818,-39.25073201815859
0.254316506476511,-5.368633899720453,1.7028525268964312,-3.347721931911513,5.473759818148838,-38.98931818562506
0.20063016747930645,-5.313896301538964,1.6693753075773161,-3.7376151137677636,6.95925607610876,-38.55197207276503
0.1474912044639168,-5.244303740777877,1.6319991564396386,-4.1231348344954135,8.662685597707025,-37.92861014452968
0.09504816705613804,-5.157676884800806,1.5907678080946843,-4.502420935940711,10.56929590316448,-37.11750402547709
0.04347139820812998,-5.051983925769162,1.5457435987352772,-4.873595976195482,12.659006512434525,-36.1263371603839
-0.007048441049561635,-4.925393860644816,1.4970076389733225,-5.234859347799321,14.906631674456882,-34.972962256024985
-0.0563023796560098,-4.776327543900248,1.4446590454953292,-5.584588970359571,17.28254531066703,-33.68578354052199
-0.10406565509501228,-4.603502090793578,1.3888131557917336,-5.92144680576479,19.75381737247281,-32.30371475792302
-0.15010067600294807,-4.40596391706885,1.3295986877340857,-6.24448395334402,22.285813595648793,-30.87570341563828
-0.19416031517363658,-4.183105781112362,1.2671538482006455,-6.553240987500403,24.844207296233222,-29.459861468020332
-0.2359913729847602,-3.9346637081500297,1.2016214383256414,-6.847839602180606,27.397306329318255,-28.122297269283266
-0.27533801006626046,-3.6606906448568473,1.1331430423038353,-7.129062574873439,29.918555510227264,-26.935794952069593
-0.3119449165148289,-3.3615050897545746,1.0618524165551009,-7.398420524394135,32.38903850315598,-25.978523020884825
-0.34555996741237466,-3.0376147047230146,0.9878682113111595,-7.658205754602983,34.79977235015476,-25.332956042629935
-0.3759361144596048,-2.689616981221467,0.9112861537651297,-7.911535315029282,37.15355004835359,-25.08513468980092
-0.40283228427181944,-2.3180814807379315,0.8321708006148368,-8.162386661927291,39.466007393919284,-25.324223270328797
-0.42601309907919876,-1.9234214067987387,0.7505469339955639,-8.41562889463058,41.76539372946819,-26.1419592292736
-0.44524731314718613,-1.5057674695040568,0.6663906450492582,-8.677048486923315,44.09005709596931,-27.630836364475595
-0.4603049878422267,-1.0648668985443637,0.579620160180025,-8.95335685056807,46.481603215703956,-29.87832308457232
-0.4709536568276703,-0.6000508663873241,0.4900865916743443,-9.252140081413794,48.96945079810046,-32.951269664141975
-0.47695416549154357,-0.11035635840631947,0.39756519086020636,-9.581652778055213,51.53797473058463,-36.85834389276354
-0.4780577290756068,0.4050233888995269,0.3017486630796542,-9.950236216982848,54.05892629965512,-41.466393765261934
-0.4740074951866115,0.9456126518960781,0.2022463009098257,-10.364900154635468,56.15845077816196,-46.3274356566564
-0.46455136866765073,1.5071971596776979,0.09859729936347103,-10.828174511202032,56.97764910559573,-50.35647692368894
-0.44947939707087375,2.076973650733655,-0.009684445748549292,-11.331739280438923,54.82459845996545,-51.34915346234182
-0.4287096605635372,2.62521963533331,-0.12300183855293852,-11.84523081506234,46.95454686029255,-45.64928549738009
-0.4024574642102041,3.0947651039362354,-0.2414541467035619,-12.301723670036141,30.35912722086692,-29.15853262383032
-0.37150981317084175,3.3983563761449047,-0.3644713834039233,-12.593308996274445,4.8193368367473095,-1.4072389706688213
-0.3375262494093927,3.4465497445123776,-0.49040447336666776,-12.607381385981133,-23.518463643219732,29.668725189955648
-0.3030607519642689,3.21136510808018,-0.6164782872264791,-12.310694134081578,-45.01212342040399,51.66497368379591
-0.2709471008834671,2.7612438738761402,-0.7395852285672949,-11.794044397243619,-55.271118282961964,59.36079564781588
-0.24333466214470567,2.2085326910465204,-0.8575256725397311,-11.20043644076546,-56.99774597788337,56.80280656523343
-0.22124933523424045,1.6385552312676865,-0.9695300369473857,-10.632408375113124,-54.60025902938009,49.92233308706108
-0.2048637829215636,1.0925526409738855,-1.075854120698517,-10.133185044242513,-50.91121191238625,42.327429685837615
-0.19393825651182475,0.5834405218500229,-1.1771859711409423,-9.709910747384138,-47.1830445763682,35.4885343830493
-0.18810385129332452,0.11161007608634094,-1.2742850786147837,-9.355025403553645,-43.828978704505694,29.80187728371819
-0.1869877505324611,-0.326679710958716,-1.36783533265032,-9.057006630716463,-40.91317530645404,25.250329172907264
-0.19025454764204827,-0.7358114640232565,-1.4584053989574848,-8.804503338987391,-38.37760437535487,21.69329170352861
-0.19761266228228083,-1.1195875077768052,-1.5464504323473587,-8.587570421952105,-36.13308474815089,18.974179204183464
-0.2088085373600489,-1.480918355258314,-1.6323261365668797,-8.39782862991027,-34.09249439413728,16.953798235798757
-0.22361772091263205,-1.821843299199687,-1.7163044228659825,-8.228290647552283,-32.181311728422266,15.51654509426907
-0.24183615390462893,-2.1436564164839096,-1.7985873293415053,-8.073125196609592,-30.3398005622407,14.567765358960292
-0.263272718069468,-2.4470544221063166,-1.8793185813076012,-7.927447543019989,-28.522382974419557,14.029038437617238
-0.28774326229053115,-2.732278251850512,-1.9585930567378012,-7.787157158643817,-26.696239900020256,13.833707693177223
-0.31506604480903627,-2.9992406508507146,-2.0364646283242394,-7.648820081712045,-24.839814979225967,13.92332979072243
-0.3450584513175434,-3.2476388006429744,-2.11295282914136,-7.509586783804821,-22.941386576667906,14.24513081657889
-0.3775348393239732,-3.4770526664096533,-2.188048696979408,-7.3671354756390315,-20.997701732321435,14.750362355210257
-0.4123053659880697,-3.6870296837328675,-2.2617200517357987,-7.219631852086929,-19.012628704493064,15.393395065727447
-0.4491756628253984,-3.8771559707777983,-2.333916370256668,-7.065697901429655,-16.995797991024023,16.131377981285773
-0.48794722253317635,-4.047113950688039,-2.4045733492709642,-6.904384121616797,-14.96122969990668,16.92429777891084
-0.5284183620400568,-4.1967262476871054,-2.4736171904871322,-6.735141143827689,-12.925971919028433,17.735285221658668
-0.5703856245169279,-4.32598596687739,-2.540968601925409,-6.557788291611102,-10.908793078200635,18.531034558876488
-0.6136454841857018,-4.435073897659397,-2.60654648484152,-6.372477946022337,-8.92897864673531,19.282225615863695
-0.6579962231622957,-4.52436368412675,-2.6702712643017437,-6.1796556898637,-7.005279304928532,19.96386632575884
-0.7032398600035632,-4.594416477176035,-2.732067821200381,-5.980017026606111,-5.155046384472875,20.55550306050295
-0.7491840247753235,-4.645966941020764,-2.791867991466442,-5.774461996001082,-3.393574349986313,21.041274236560962
-0.7956436941855312,-4.679902684520627,-2.849612611426453,-5.564049253635472,-1.733652985651275,21.40980650554404
-0.8424427210307375,-4.69723921437714,-2.905253103962808,-5.349951188580032,-0.18531674223976624,21.65397052476506
-0.8894151131745088,-4.699092381799537,-2.958752615848608,-5.133411483332382,1.2442326819980125,21.770524205028522
-0.9364060369925042,-4.686650054979557,-3.010086730681932,-4.915706241282097,2.550561245310008,21.759675969759073
-0.9832725375422998,-4.661144442526457,-3.059243793094753,-4.698109481584506,3.731828098350686,21.624600249164118
-1.0298839819675645,-4.623826161542951,-3.106224887910598,-4.481863479092865,4.7885338380472104,21.370933843140303
-1.076122243582994,-4.575940823162479,-3.1510435227015265,-4.268154140661462,5.723220165917032,21.0062765272866
-1.1218816518146189,-4.5187086215033085,-3.193725064108141,-4.058091375388596,6.540145020166584,20.539713628327142
-1.1670687380296518,-4.453307171301643,-3.2343059778620273,-3.8526942391053245,7.2449523149519495,19.981373095747152
-1.2116018097426682,-4.380857648152123,-3.2728329202530806,-3.652880508147853,7.844350767142044,19.342025257617532
-1.2554103862241894,-4.302414140480702,-3.309361725334559,-3.4594602555716776,8.345812239588183,18.632730056593097
-1.2984345276289964,-4.21895601808482,-3.3439563278902757,-3.2731329550057464,8.757296681436843,17.86453400483614
-1.3406240878098445,-4.1313830512704515,-3.3766876574403333,-3.094487614957385,9.087008065054146,17.048217180314328
-1.381937918322549,-4.04051297061991,-3.407632533589907,-2.9240054431542415,9.343183606284162,16.194089119661054
-1.4223430480287482,-3.947081134557069,-3.4368725880214495,-2.762064551957631,9.533916898456305,15.311831300066862
-1.4618138593743188,-3.851741965572506,-3.4644932335410257,-2.608946238956962,9.667014295891098,14.410382960271619
-1.5003312790300438,-3.755071822613595,-3.4905826959305952,-2.464842409354246,9.74988288142123,13.497866255932752
-1.5378819972561797,-3.657572993799383,-3.5152311200241377,-2.3298637467949184,9.789447600839587,12.581546177218852
-1.5744577271941735,-3.559678517790987,-3.538529757492087,-2.2040482850227296,9.792094617725622,11.667820288480366
-1.6100545123720833,-3.4617575716137305,-3.5605702403423143,-2.087370082137926,9.763637614667477,10.76223318987274
-1.6446720880882206,-3.364121195467056,-3.5814439411636934,-1.9797477502391987,9.709303621803013,9.869510644885656
-1.6783133000428911,-3.267028159249026,-3.6012414186660853,-1.881052643790342,9.633734967760285,8.993608546674619
-1.7109835816353813,-3.170690809571423,-3.6200519451039885,-1.791116558323596,9.54100409409081,8.137772277604228
-1.7426904897310955,-3.0752807686305146,-3.6379631106872243,-1.7097388355475536,9.434638221623889,7.304602509888397
-1.7734432974174006,-2.9809343864142757,-3.6550604990427,-1.6366928104486695,9.317651174395301,6.496124057295793
-1.8032526412815433,-2.8877578746703225,-3.6714274271471865,-1.5717315698757117,9.192580024010066,5.713854977430287
-1.8321302200282465,-2.795832074430222,-3.687144742845944,-1.5145930201014088,9.061524588116523,4.958873705766704
-1.8600885407725487,-2.7052168285490565,-3.702290673046958,-1.4650042830437418,8.926188179581883,4.231882548940119
-1.8871407090580392,-2.615954946753238,-3.7169407158773953,-1.4226854575543406,8.787918341864211,3.533266356720901
-1.9133002585255716,-2.528075763334596,-3.731167570452939,-1.3873527939871315,8.64774661019563,2.8631456185822177
-1.9385810161589176,-2.4415982972326393,-3.74504109839281,-1.3587213378013094,8.506426601520907,2.221423587477987
-1.9629969991312441,-2.3565340312174303,-3.7586283117708232,-1.3365071019265296,8.364469956613007,1.6078273213471117
-1.9865623394434184,-2.2728893316513004,-3.7719933827900887,-1.3204288287130583,8.222179836368653,1.0219427565890165
-2.0092912327599315,-2.190667533287614,-3.7851976710772193,-1.310209401147168,8.079681814037716,0.4632440942364541
-2.0311979080928078,-2.109870715147237,-3.798299765088691,-1.3055769602048035,7.9369521104373195,-0.06888210318701009
-2.05229661524428,-2.0305011940428637,-3.811355534690739,-1.3062657812366736,7.793843195075225,-0.575117629844865
-2.0726016271847088,-1.9525627620921113,-3.824418192503106,-1.3120169575351222,7.6501068277411175,-1.0561976523356658
-2.09212725480563,-1.8760616938147001,-3.8375383620784573,-1.3225789340584788,7.505414647500834,-1.512899488370357
-2.110887871743777,-1.8010075473396918,-3.850764151419042,-1.3377079289421825,7.359376433696916,-1.9460346164251452
-2.128897947217174,-1.7274137830027227,-3.864141230708464,-1.357168275106434,7.211556170507606,-2.3564434018184235
-2.1461720850472013,-1.6552982212976466,-3.8777129134595283,-1.3807327091246182,7.061486046220137,-2.744992052586046
-2.162725067260178,-1.5846833608354451,-3.8915202405507743,-1.4081826296504787,6.908678513394506,-3.1125713536446575
-2.1785719008685325,-1.5155965757015002,-3.9056020668472793,-1.4393083431869254,6.752636528717786,-3.4600967674353376
-2.1937278666255473,-1.4480702104143224,-3.9199951502791484,-1.4739093108612786,6.592862083247842,-3.7885095315261412
-2.2082085687296904,-1.382141589581844,-3.9347342433877612,-1.51179440617654,6.42886312614506,-4.098778426992052
-2.2220299846255087,-1.3178529583203935,-3.9498521874495265,-1.5527821904464605,6.260158978746263,-4.391901934611641
-2.2352085142087126,-1.255251368532931,-3.965380009353991,-1.5967012097925768,6.086284331501417,-4.668910538109724
-2.247761027894042,-1.1943885252179167,-3.9813470214519167,-1.643390315173674,5.906791914193881,-4.930868974099498
-2.259704913146221,-1.135320606075978,-3.9977809246036533,-1.6926990049146688,5.721253930149301,-5.178878266411527
-2.2710581192069808,-1.078108066774485,-4.0147079146528,-1.744487787578784,5.52926234784025,-5.414077417570407
-2.2818391998747254,-1.0228154432960823,-4.032152792528588,-1.7986285617544882,5.330428148377166,-5.637644661733205
-2.292067354307686,-0.9695111618123107,-4.050139078146133,-1.8550050083718201,5.124379634781196,-5.850798210851993
-2.301762465925809,-0.9182673654644987,-4.068689128229851,-1.91351299048034,4.910759918618554,-6.054796448526858
