th1 (rad),w1 (rad/s),th2 (rad),w2 (rad/s),a1 (rad/s^2),a2 (rad/s^2)
3.5372051884482345,-2.0973110342897203,3.647413033367877,2.273425693041373,3.8366786934405965,0.4511529020174915
3.5162320781053373,-2.0589442473553143,3.670147290298291,2.277937222061548,3.6409571942412478,0.6941728533902007
3.4956426356317842,-2.022534675412902,3.6929266625189063,2.28487895059545,3.4388232437517843,0.9595623654361183
3.4754172888776553,-1.9881464429753841,3.715775452024861,2.294474574249811,3.2360366440624144,1.238900359384427
3.4555358244479013,-1.9557860765347599,3.738720197767359,2.306863577843655,3.0379143370155535,1.524535754979728
3.4359779636825536,-1.9254069331646044,3.7617888335457956,2.3221089353934525,2.849097069500869,1.8099116315558583
3.4167238943509077,-1.8969159624695957,3.78500992289973,2.340208051709011,2.673419409010201,2.0897419963197192
3.397754734726212,-1.8701817683794937,3.8084120034168203,2.361105471672208,2.513869932938365,2.3600605986504424
3.379052917042417,-1.84504306905011,3.8320230581335424,2.384706077658713,2.3726215993314064,2.6181708104680217
3.3606024863519157,-1.821316853056796,3.8558701189101297,2.410887785763393,2.2511106546270576,2.8625278111764167
3.3423893178213477,-1.7988057465105254,3.8799789967677634,2.439513063875157,2.1501442420642323,3.092581612668944
3.3244012603562423,-1.777304304089883,3.904374127406515,2.4704388800018466,2.0700204962683464,3.308604189525423
3.3066282173153434,-1.7566040991271996,3.9290785162065336,2.503524921897101,2.0106490904160674,3.511517933235351
3.2890621763240713,-1.736497608223039,3.9541137654255047,2.5386401012294546,1.9716641511428163,3.7027369553024885
3.271697200241841,-1.7167809667116107,3.9795001664377994,2.5756674707824794,1.9525247727386659,3.8840279916260037
3.254529390574725,-1.6972557189842241,4.005256841145624,2.6145077506987393,1.9526009171599632,4.057393990945505
3.2375568333848825,-1.6777297098126245,4.0314019186526115,2.655081690608194,1.97124431034213,4.224980856610163
3.220779536286756,-1.6580172667092032,4.057952735558693,2.697331499174296,2.0078451452636097,4.389006096882193
3.204199363619664,-1.637938815256567,4.084926050550436,2.7412215601431176,2.0618761095115103,4.551707132876211
3.1878199754670984,-1.6173200541614519,4.112338266151867,2.78673863147188,2.132925596625049,4.715306529749682
3.1716467749254837,-1.5959907981952013,4.140205652466586,2.833891696769377,2.2207220454872667,4.881991295684898
3.155686866943532,-1.5737835777403286,4.168544569434279,2.882711609726226,2.32515126791447,5.053903505340291
3.1399490311661284,-1.550532065061184,4.197371685531541,2.933250644779629,2.446268437407227,5.233139750765095
3.1244437105155165,-1.5260693806871117,4.226704191979338,2.98558204228728,2.5843061689742424,5.421757230512126
3.1091830167086454,-1.5002263189973692,4.256560012402211,3.0397996145924013,2.7396798525186985,5.621784605459735
3.0941807535186716,-1.4728295204721822,4.286958008548135,3.0960174606469986,2.9129911293745487,5.835236042698822
3.0794524583139498,-1.4436996091784366,4.317918183154605,3.154369821073987,3.105030132182826,6.06412711369141
3.0650154622221653,-1.4126493078566085,4.349461881365345,3.215011092210901,3.3167768436766485,6.310491394674769
3.050888969143599,-1.379481539419842,4.381611992287454,3.278116006157649,3.5494016652967084,6.576396725535046
3.037094153749401,-1.343987522766875,4.414393152349031,3.3438799734129994,3.804265012118385,6.863960109562718
3.0236542785217324,-1.305944872645691,4.447831952083161,3.4125195745086265,4.082915452221669,7.175360171685962
3.0105948297952754,-1.2651157181234745,4.481957147828247,3.484273176225486,4.387085568101402,7.512845925701981
2.9979436726140407,-1.2212448624424603,4.5167998795905016,3.559401635482506,4.718684312414932,7.878740316517925
2.985731223989616,-1.174058019318311,4.552393895945326,3.638189038647685,5.079784133025481,8.275436581048503
2.973990643796433,-1.1232601779880562,4.588775786331803,3.72094340445817,5.472600520532143,8.7053848845121
2.9627580420165525,-1.0685341727827349,4.625985220376385,3.807997253303291,5.899460847563428,9.171065903970161
2.952072700288725,-1.0095395643071006,4.664065192909417,3.8997079123429925,6.362758380468688,9.674947008238439
2.941977304645654,-0.9459119805024137,4.703062272032847,3.996457382425377,6.864886105093084,10.219415378576869
2.93251818484063,-0.8772631194514828,4.7430268458571,4.098651536211146,7.408143474960372,10.806680784168762
2.923745553646115,-0.8031816847018791,4.784013361219212,4.206718344052834,7.994607328712078,11.438638736936564
2.915713736799096,-0.7232356114147583,4.82608054465974,4.321104731422199,8.625956027057688,12.116682396357188
2.9084813806849485,-0.6369760511441814,4.869291591973962,4.442271555385771,9.303233375379932,12.841448929766873
2.902111620173507,-0.543943717390382,4.91371430752782,4.570686044683439,10.026536274245133,13.612483218541554
2.896672182999603,-0.4436783546479307,4.9594211679746545,4.706810876868855,10.794607595251168,14.42779918283087
2.892235399453124,-0.335732278695419,5.006489276743343,4.851088868697164,11.604314109430842,15.28331722637332
2.8888780766661695,-0.21968913760111058,5.0550001654303145,5.003922040960897,12.44998942002145,16.172156492278127
2.886681185290158,-0.09518924340089609,5.105039385839923,5.1656436058836785,13.322625407071751,17.083764560548
2.885729292856149,0.03803701066982142,5.15669582189876,5.336481251489158,14.208905146605488,18.002877613975592
2.886109662962847,0.18012606213587629,5.210060634413652,5.5165100276289145,15.09008910301623,18.908324771839823
2.8879109235842058,0.3310269531660386,5.265225734689941,5.705593275347312,15.940799108408633,19.771726181971918
2.8912211931158662,0.4904349442501249,5.322281667443414,5.903310537167032,16.727796312418114,20.556191141839797
2.8961255425583676,0.657712907374306,5.381314772815084,6.10887244858543,17.40892423442206,21.21520470181728
2.9027026716321105,0.8318021497185266,5.442403497300938,6.321024495603603,17.932487019336875,21.691999578941754
2.911020693129296,1.0111270199118954,5.5056137422569735,6.537944491393021,18.23744822345215,21.919835935097257
2.9211319633284147,1.1935015021464168,5.570993187170903,6.7571428507439935,18.254943608942728,21.823728408681454
2.933066978349879,1.3760509382358441,5.6385646156783436,6.975380134830808,17.911656055834015,21.324215764576905
2.9468274877322376,1.5551674987941844,5.708318417026652,7.188622292476578,17.1355290586242,20.343682741046262
2.9623791627201794,1.7265227893804265,5.7802046399514175,7.3920591198870405,15.864008673403859,18.815418605714207
2.979644390613984,1.885162876114465,5.854125231150288,7.5802133059441825,14.054432905676348,16.694958981623913
2.9984960193751284,2.0257072051712286,5.92992736420973,7.747162895760422,11.69534748861292,13.97233032610567
3.0187530914268406,2.1426606800573578,6.007398993167334,7.886886199021478,8.81659379565888,10.682804846162806
3.0401796982274143,2.2308266180139467,6.0862678551575495,7.993714247483106,5.495357658194747,6.913093979684604
3.0624879644075538,2.285780194595894,6.166204997632381,8.062845187279951,1.8554603703733434,2.8000789243203066
3.085345766353513,2.3043347982996276,6.24683344950518,8.090845976523154,-1.941654480826201,-1.479465659356353
3.108389114336509,2.2849182534913655,6.3277419092704115,8.07605131992959,-5.713651945130405,-5.727331545805936
3.1312382968714227,2.2277817340400614,6.408502422469708,8.01877800447153,-9.27877432787462,-9.747129706149195
3.1535161142118233,2.1349939907613154,6.488690202514423,7.921306707410038,-12.477438408214867,-13.367299465689857
3.1748660541194367,2.0102196066791667,6.567903269588523,7.787633712753139,-15.18927048317354,-16.458909341439107
3.1949682501862284,1.8583269018474313,6.645779606716054,7.6230446193387476,-17.34239899173212,-18.945034098356043
3.2135515192047026,1.6849029119301102,6.722010052909442,7.433594278355187,-18.914206762634265,-20.80107639067997
3.230400548324004,1.4957608443037675,6.796345995692994,7.225583514448387,-19.92497233976127,-22.04771486069222
3.2453581567670415,1.2965111209061548,6.868601830837478,7.005106365841465,-20.427145066912487,-22.739447932140948
3.258323267976103,1.09223967023703,6.938652894495893,6.777711886520056,-20.493208584542842,-22.951825528704916
3.2692456646784733,0.8873075843916016,7.0064300133610935,6.548193631233007,-20.204475898814486,-22.769761847706558
3.2781187405223893,0.6852628254034567,7.0719119496734235,6.320496012755941,-19.64219745783712,-22.278303625413688
3.2849713687764237,0.48884085082508555,7.135116909800983,6.097712976501803,-18.88145164913821,-21.556292753996097
3.2898597772846747,0.3000263343337034,7.196094039566001,5.882150048961843,-17.987638922690316,-20.67271212962307
3.2928600406280117,0.12014994510680024,7.254915540055619,5.675422927665612,-17.015057808564872,-19.685167887403097
3.29406154007908,-0.05000063297884849,7.311669769332275,5.478571248791581,-16.00694285476432,-18.63987108725769
3.2935615337492914,-0.21007006152649169,7.366455481820191,5.292172537919003,-14.996397776182564,-17.572541147819724
3.2914608331340265,-0.36003403928831734,7.419377207199381,5.116447126440806,-14.007779072977291,-16.509778844179838
3.2878604927411432,-0.5001118300180902,7.470541678463789,4.951349337999008,-13.058219928447775,-15.470593165786969
3.2828593744409624,-0.630694029302568,7.520055171843779,4.796643406341138,-12.15910146703344,-14.467884715210934
3.276552434147937,-0.7522850439729024,7.568021605907191,4.651964559189029,-11.31736752965528,-13.50977820726051
3.2690295837082077,-0.8654587192694552,7.614541251499081,4.516866777116424,-10.536640066580697,-12.600758281676592
3.2603749965155133,-0.9708251199352621,7.659709919270245,4.390859194299658,-9.81813004070047,-11.742601308287156
3.2506667453161606,-1.069006420342267,7.703618511213242,4.273433181216786,-9.161359593077433,-10.935117343985638
3.2399766811127377,-1.1606200162730413,7.74635284302541,4.16408200777693,-8.564720767291943,-10.176726491615387
3.2283704809500073,-1.2462672239459607,7.78799366310318,4.062314742860776,-8.025898686071269,-9.464896966991951
3.215907808710548,-1.3265262108066733,7.828616810531788,3.967665773190857,-7.542185798445782,-8.796471282607454
3.202642546602481,-1.4019480687911312,7.868293468263697,3.8797010603647824,-7.1107106716937265,-8.1679041270207
3.1886230659145696,-1.4730551755080685,7.907090478867344,3.7980220190945753,-6.728601000972778,-7.575431996141192
3.1738925141594887,-1.5403411855177964,7.94507069905829,3.7222676991331634,-6.393096721767789,-7.015191120378676
3.1584891023043107,-1.6042721527354744,7.982293376049621,3.6521157879293766,-6.101625661311971,-6.4832970924817195
3.142446380776956,-1.665288409348594,8.018814533928914,3.5872828170045596,-5.851851171559698,-5.975896993965827
3.1257934966834697,-1.723806921064191,8.05468736209896,3.5275238470649013,-5.641698646345312,-5.489202791443275
3.1085554274728278,-1.7802239075276443,8.08996260056961,3.4726318191504686,-5.469365674812884,-5.019513323876199
3.090753188397551,-1.8349175642757731,8.124688918761114,3.422436685911707,-5.333318727835051,-4.563231307464051
3.0724040127547934,-1.8882507515541236,8.158913285620232,3.3768043728370665,-5.2322776074895465,-4.11688143045486
3.053521505239252,-1.940573527629019,8.192681329348602,3.335635558532518,-5.16518730238756,-3.677135793721412
3.034115769962962,-1.9922254006528946,8.226037684933928,3.298864200595304,-5.131175277692037,-3.240853688086644
3.0141935159564333,-2.043537153429815,8.259026326939882,3.2664556637144373,-5.129490493048157,-2.8051440070151608
2.9937581444221353,-2.0948320583602964,8.291690883577026,3.238404223644286,-5.15941851568406,-2.3674604790727027
2.9728098238385323,-2.146426243517137,8.324074925813468,3.214729618853559,-5.2201649680298345,-1.925742312638636
2.951345561403361,-2.1986278931974352,8.356222222002003,3.1954721957271723,-5.310697323366289,-1.4786155722249634
2.9293592824713865,-2.2517348664310983,8.388176943959275,3.1806860400049226,-5.42953306246451,-1.025673150257777
2.9068419338070757,-2.3060301970557435,8.419983804359324,3.170429308502345,-5.574461141581112,-0.5678525172083627
2.883781631836518,-2.3617748084715546,8.451688097444348,3.1647507833302613,-5.742184955472586,-0.10792857598614106
2.8601638837518024,-2.4191966580262805,8.48333560527765,3.1636714975704,-5.927880846750239,0.3488694228120679
2.8359719171715394,-2.4784754664937827,8.514972320253355,3.1671601917985206,-6.1246803646532815,0.794128025150539
2.8111871625066014,-2.5397222701403157,8.54664392217134,3.175101472050026,-6.323111933845946,1.2154568295358097
2.7857899398051984,-2.6029533894787753,8.57839493689184,3.187256040345384,-6.510583932904904,1.5957486460945856
2.7597604059104106,-2.668059228807824,8.610267497295293,3.20321352680633,-6.671059734630407,1.9127057079036618
2.733079813622332,-2.7347698261541282,8.642299632563356,3.2223405838853667,-6.785160879206346,2.138966920313354
2.705732115360791,-2.8026214349461918,8.67452303840221,3.2437302530885,-6.831013212064907,2.2432836408389276
2.677705901011329,-2.8709315670668407,8.706960340933096,3.2661630894968896,-6.7861680306242205,2.193217731965759
2.6489965853406607,-2.938793247373083,8.739621971828065,3.2880952668165473,-6.630799790823572,1.9596535778973019
2.61960865286693,-3.0051012452813186,8.77250292449623,3.3076918025955204,-6.35201682171594,1.522901967074467
2.5895576404141165,-3.068621413498478,8.805579842522185,3.322920822266265,-5.948517680478643,0.8793210684830313
2.558871426279132,-3.1281065903032643,8.838809050744848,3.3317140329510955,-5.434175217335539,0.04645747661144665
2.527590360376099,-3.18244834247662,8.87212619107436,3.3321786077172098,-4.838854434986136,-0.935687820193825
2.495765876951333,-3.230836886826481,8.905447977151532,3.3228217295152715,-4.205317846361195,-2.0089026575597253
2.463457508083068,-3.272890065290093,8.938676194446684,3.3027327029396742,-3.582490333552354,-3.1061590906021173
2.4307286074301673,-3.3087149686256168,8.97170352147608,3.271671112033653,-3.0169956504973143,-4.163492095308648
2.397641457743911,-3.33888492513059,9.004420232596416,3.2300361910805666,-2.5457083014768367,-5.130510123856654
2.364252608492605,-3.3643420081453583,9.036720594507223,3.178731089842,-2.1915071834675497,-5.976454125304145
2.3306091884111515,-3.386257079980034,9.068507905405642,3.1189665485889586,-1.9628754089262437,-6.6908783176143105
2.296746617611351,-3.4058858340692963,9.099697570891532,3.0520577654128154,-1.8564800501274688,-7.280146774307112
2.262687759270658,-3.424450634570571,9.13021814854566,2.9792562976697443,-1.8611535172335223,-7.761945466198496
2.2284432529249525,-3.4430621697429062,9.160010711522357,2.9016368430077595,-1.961848507552895,-8.159806707190928
2.1940126312275234,-3.4626806548184352,9.189027079952435,2.82003877593585,-2.1427320868045943,-8.498816689184094
2.159385824679339,-3.4841079756864812,9.217227467711794,2.735050609044009,-2.3891776267295204,-8.802848372616483
2.124544744922474,-3.5079997519537764,9.244577973802235,2.6470221253178443,-2.6887868219294146,-9.093139070759843
2.0894647474029364,-3.5348876201730706,9.271048195055414,2.5560907346102457,-3.03171815616123,-9.387829047572305
2.0541158712012058,-3.5652048017346827,9.296609102401517,2.4622124441345226,-3.4105955141670896,-9.70207947378808
2.018463823183859,-3.5993107568763536,9.321231226842862,2.3651916493966416,-3.820205779840214,-10.048477071880248
1.9824707156150954,-3.6375128146747557,9.344883143336828,2.2647068786778393,-4.257120409268084,-10.43753445628977
1.9460955874683479,-3.6800840187674364,9.367530212123606,2.1603315341149414,-4.719316229600982,-10.878177218577218
1.9092947472806736,-3.7272771810634464,9.389133527464756,2.051549761929169,-5.2058300434798,-11.378164243385324
1.8720219754700391,-3.7793354814982445,9.409649025084047,1.937768119495316,-5.7164571046209645,-11.944420582917106
1.8342286206550567,-3.836500052544454,9.429026706279,1.8183239136661449,-6.251490316359356,-12.583279223431694
1.795863620129612,-3.8990149557080476,9.447209945415661,1.692491121431828,-6.811490805201726,-13.300635250280974
1.7568734705725315,-3.9671298637600647,9.464134856629979,1.559484768929018,-7.3970782928673,-14.102017582823272
1.7172021719349309,-4.041100646688737,9.479729704319269,1.4184645931007853,-8.008729541796091,-14.99258240028126
1.6767911654680434,-4.121187942106698,9.493914350250277,1.2685387690979728,-8.646574041289515,-15.977030317899361
1.6355792860469764,-4.207653682519593,9.506599737941256,1.1087684659189792,-9.310177561711482,-17.059447336472527
1.5935027492217806,-4.300755458136708,9.517687422600446,0.9381739925542538,-9.998306117096812,-18.243068262121877
1.5504951946404135,-4.400738519307676,9.527069162525988,0.7557433099330351,-10.708665344223277,-19.52996121351887
1.5064878094473368,-4.507825172749908,9.53462659562532,0.5604436977978464,-11.437613553958649,-20.92063350091663
1.4614095577198378,-4.622201308289495,9.540231032603298,0.3512373627886801,-12.179851010680109,-22.413563074193316
1.4151875446369429,-4.743999818396296,9.543743406231185,0.12710173204674696,-12.92809358540124,-24.004666354127178
1.3677475464529798,-4.873280754250309,9.545014423551653,-0.11294493149452481,-13.672745906155507,-25.68672288347363
1.3190147389104767,-5.010008213311864,9.543884974236708,-0.3698121603292611,-14.401597316652014,-27.44878980641089
1.2689146567773582,-5.1540241864783845,9.540186852633415,-0.64430005839337,-15.099572732121715,-29.275654020416095
1.2173744149125743,-5.305019913799602,9.533743852049481,-0.937056598597531,-15.748578629900912,-31.147385319325878
1.1643242157745783,-5.462505700098611,9.524373286063506,-1.2485304517907898,-16.32749001884234,-33.03906714681766
1.1096991587735923,-5.625780600287035,9.511887981545598,-1.5789211232589664,-16.81232476342838,-34.920788661795015
1.0534413527707218,-5.793903847921319,9.496098770313008,-1.9281290098769166,-17.176644297830403,-36.75797777398705
0.9955023142915086,-5.965670290899623,9.476817480214239,-2.295708787616787,-17.39220221265916,-38.51213483103269
0.9358456113825123,-6.139592313026214,9.45386039233807,-2.6808301359271143,-17.42983362240265,-40.14198762822904
0.8744496882522502,-6.313890649250241,9.4270520909788,-3.0822500122094048,-17.260540546722485,-41.605031011225094
0.8113107817597478,-6.486496054717466,9.396229590856706,-3.4983003223216556,-16.8566873038867,-42.85934477298628
0.7464458212125731,-6.655062927756333,9.36124658763349,-3.9268937700515183,-16.19318423870335,-43.86551431340917
0.6798951919350098,-6.816994770143366,9.321977649932975,-4.36554891318561,-15.248519213955218,-44.58842702820904
0.6117252442335761,-6.969479962282918,9.27832216080112,-4.811433183467701,-14.005504549215624,-44.99870202401603
0.5420304446107469,-7.109535007775074,9.230207828966442,-5.261420203707861,-12.451648242739703,-45.073545225623036
0.47093509453299615,-7.2340514902024715,9.177593626929363,-5.712155655964091,-10.579130307791115,-44.79690961339346
0.39859457963097145,-7.339842793280383,9.120472070369722,-6.160124752098025,-8.384456927536107,-44.158971040761855
0.3251961516981676,-7.423687362555744,9.058870822848741,-6.601714462505644,-5.867958744447907,-43.155081137115324
0.2509592780726102,-7.482366950000223,8.992853678223684,-7.033265273876797,-3.0333736905980158,-41.784500027886246
0.17613560857260796,-7.512700686906204,8.922521025484915,-7.451110274155659,0.11221041641391569,-40.049312344811426
0.10100860170354592,-7.5115785827420645,8.848009922743358,-7.851603397603773,3.5577976683964243,-37.95396503174725
0.02589281587612527,-7.476000606058101,8.76949388876732,-8.231143047921245,7.287136884644039,-35.505817825488165
-0.04886719018445573,-7.40312923721166,8.687182458288108,-8.586201226176128,11.27656035346439,-32.71695853919354
-0.12289848255657233,-7.290363633677016,8.601320446026346,-8.913370811568063,15.492192390496836,-29.607305859375536
-0.19580211889334248,-7.1354417097720475,8.512186737910666,-9.209443870161818,19.886963332864735,-26.208715898181026
-0.2671565359910629,-6.9365720764434,8.420092299209047,-9.471531029143629,24.39811973417969,-22.569461275468452
