th1 (rad),w1 (rad/s),th2 (rad),w2 (rad/s),a1 (rad/s^2),a2 (rad/s^2)
4.897322711860088,-2.9049659731919877,1.3847133122614184,-1.02660735404208,6.912307292785682,-6.2484370640694085
4.868273052128168,-2.8358429002641308,1.3744472387209976,-1.089091724682774,7.279445496287441,-5.553624647752748
4.839914623125527,-2.7630484453012563,1.36355632147417,-1.1446279711603016,7.621630345081455,-4.900049222142129
4.812284138672514,-2.6868321418504415,1.3521100417625669,-1.193628463381723,7.937262318914948,-4.289885533714419
4.78541581725401,-2.607459518661292,1.3401737571287498,-1.236527318718867,8.225581450468724,-3.7241494240300637
4.7593412220673965,-2.525203704156605,1.3278084839415611,-1.2737688129591676,8.48656064903299,-3.202821603403656
4.73408918502583,-2.440338097666275,1.3150707958119694,-1.3057970289932042,8.720791160026568,-2.72499240738273
4.709685804049167,-2.3531301860660094,1.3020128255220373,-1.3330469530670315,8.9293669964384,-2.2890161353610408
4.686154502188507,-2.2638365161016254,1.288682355991367,-1.3559371144206418,9.113773583212213,-1.8926657897370898
4.66351613702749,-2.1726987802695032,1.2751229848471606,-1.3748637723180126,9.275784299470144,-1.533281335776666
4.641789149224795,-2.079940937274802,1.2613743471239804,-1.3901965856757792,9.417367215028198,-1.2079067579389078
4.620989739852047,-1.98576726512452,1.2474723812672226,-1.4022756532551683,9.540603165378032,-0.9134130587747262
4.601132067200802,-1.8903612334707396,1.233449624734671,-1.4114097838429156,9.64761541511798,-0.6466058665607852
4.582228454866095,-1.7938850793195598,1.2193355268962418,-1.4178758425085234,9.740510513782198,-0.40431747699985604
4.564289604072899,-1.6964799741817378,1.2051567684711566,-1.4219190172785219,9.821329521405982,-0.1834839774952169
4.547324804331081,-1.598266678967678,1.1909375782983713,-1.423753857053474,9.892008536584004,0.0187913657516457
4.5313421375414045,-1.499346593601838,1.1767000397278367,-1.4235659433959575,9.954347358219625,0.20518698482548742
4.516348671605386,-1.3998031200196417,1.162464380293877,-1.4215140735477028,10.009985117310936,0.3781225721784881
4.50235064040519,-1.2997032688465324,1.1482492395584,-1.417732847825918,10.060381795531379,0.5397277810451118
4.489353607716724,-1.1990994508912187,1.134071911080141,-1.4123355700154667,10.106804677169906,0.6918186476871623
4.477362613207812,-1.0980314041195196,1.1199485553799862,-1.405417383538595,10.150318939673609,0.8358805129500094
4.466382299166617,-0.9965282147227835,1.1058943815446003,-1.397058578409095,10.191781759678616,0.9730564513595505
4.4564170170193895,-0.8946103971259973,1.0919237957605092,-1.3873280138954995,10.231839483817119,1.1041404621585327
4.44747091304813,-0.7922920022878261,1.0780505156215543,-1.376286609273914,10.270927577329818,1.2295749214376563
4.4395479930252515,-0.689582726514528,1.0642876495288152,-1.3639908600595376,10.309273211173439,1.3494520243893413
4.432652165760106,-0.5864899944027936,1.0506477409282198,-1.3504963398156442,10.346900473874307,1.4635191506276433
4.4267872658160785,-0.4830209896640505,1.0371427775300632,-1.3358611483093679,10.38363829285285,1.571188254130939
4.421957055919438,-0.379184606735522,1.0237841660469695,-1.3201492657680585,10.419131217213886,1.6715495046748368
4.4181652098520825,-0.2749932945633832,1.0105826733892889,-1.3034337707213102,10.452853246871557,1.7633894829217847
4.415415276906448,-0.1704647620946676,0.9975483356820758,-1.2857998758920923,10.48412488930139,1.8452142514064251
4.413710629285502,-0.0656235132016537,0.9846903369231549,-1.267347733378028,10.512133584595963,1.915277585217992
4.413054394153486,0.03949782264430593,0.9720168595893746,-1.2481949575258482,10.535957563090577,1.971614548430741
4.413449372379929,0.1448573982752117,0.9595349100141161,-1.2284788120415409,10.554593091026483,2.0120804475276595
4.4148979463626805,0.25040332918547653,0.9472501218937006,-1.2083580075662643,10.566984924297573,2.0343949869818867
4.417401979654535,0.35607317842845226,0.9351665418180379,-1.1880140576964455,10.572059636395744,2.036191204336605
4.42096271143882,0.4617937747924097,0.9232864012410735,-1.1676521456530795,10.568761324415126,2.015068485728959
4.425580649186744,0.567481388036561,0.9116098797845428,-1.1475014607957899,10.556089038080113,1.968648674121727
4.43125546306711,0.6730422784173622,0.9001348651765849,-1.1278149740545726,10.533135133577495,1.8946339999944344
4.437985885851284,0.7783736297531372,0.8888567154360392,-1.1088686340546283,10.49912363849042,1.790865307228479
4.445769622148815,0.8833648661380413,0.8777680290954929,-1.0909599809823436,10.45344763689802,1.655378834068231
4.454603270810196,0.9878993425070215,0.8668584292856695,-1.0744061926416613,10.395704652824326,1.4864596567980999
4.464482264235266,1.0918563890352648,0.8561143673592528,-1.0595415960736803,10.325729030606125,1.2826898249633536
4.475400828125618,1.1951136793413262,0.8455189513985161,-1.0467146978240467,10.243620383751992,1.0429892197235429
4.487351964919031,1.2975498831788461,0.8350518044202756,-1.0362848056268112,10.14976730734258,0.7666472541657552
4.5003274637508195,1.399047556252272,0.8246889563640075,-1.0286183330851537,10.044865717850463,0.4533437037357594
4.514317939313342,1.4994962134307765,0.814402773033156,-1.0240848960477962,9.9299313911824,0.10315719911831718
4.52931290144765,1.5987955273426007,0.8041619240726781,-1.023053324056613,9.806306506417828,-0.2834397784842408
4.5453008567210755,1.696858592406779,0.793931390832112,-1.0258877218414555,9.675660260719233,-0.7056002033736681
4.562269442645143,1.7936151950139714,0.7836725136136974,-1.0329437238751922,9.539983892582008,-1.1621365285866503
4.580205594595283,1.8890150339397915,0.7733430763749455,-1.0445650891610587,9.401580729630899,-1.6515694424207519
4.59909574493468,1.9830308412361006,0.762897425483335,-1.0610807835852663,9.263052158690039,-2.1721909838241023
4.6189260533470415,2.075661362823001,0.7522866176474823,-1.0828026934235073,9.127280696349004,-2.722141284351693
4.639682666975272,2.166934169786491,0.7414585907132472,-1.1100241062670242,8.997411615336347,-3.2994979046995656
4.661352008673137,2.2569082859398546,0.7303583496505769,-1.1430190853140199,8.876834854280787,-3.9023765200585654
4.683921091532535,2.3456766344826625,0.7189281587974367,-1.1820428505146054,8.769169205588002,-4.529041610420091
4.707377857877361,2.4333683265385426,0.7071077302922906,-1.2273332666188064,8.678251039623442,-5.178025860610864
4.731711541142746,2.520150836934777,0.6948343976261026,-1.279113525224915,8.608130087511492,-5.848257201720862
4.756913049512094,2.6062321378098923,0.6820432623738534,-1.3375960972421237,8.563075078568948,-6.539192861510513
4.782975370890193,2.6918628885955815,0.6686673014014322,-1.402988025857229,8.54759232722306,-7.2509604655630335
4.809893999776149,2.777338811867812,0.6546374211428598,-1.4754976305128593,8.566460712441701,-7.984507170740353
4.837667387894827,2.863003418992229,0.6398824448377313,-1.5553427022202628,8.624786924874398,-8.74175904389161
4.86629742208475,2.9492512882409727,0.6243290178155286,-1.642760292659179,8.728085419023397,-9.525794447509645
4.895789934967159,3.0365321424312066,0.6079014148889368,-1.7380182371342754,8.88238825626371,-10.341037086520215
4.926155256391471,3.125356024993844,0.590521232517594,-1.8414286079994775,9.094391022234731,-11.193476631894928
4.95740881664141,3.2162999352161914,0.5721069464375993,-1.9533633743184269,9.371642307820522,-12.090927482212333
4.989571815993571,3.3100163582943964,0.552573312694415,-2.0742726491405503,9.72278588811923,-13.043339231526128
5.022671979576515,3.4072442171755886,0.5318305862030095,-2.2047060414558115,10.15786667315716,-14.063175657883244
5.056744421748271,3.5088228839071602,0.5097835257884514,-2.345337798034644,10.688713511740428,-15.165882166489226
5.091832650587342,3.6157100190245646,0.486330147808105,-2.4969966196995363,11.329413383476187,-16.37046370789883
5.127989750777588,3.7290041528593263,0.46136018161110964,-2.6607012567785246,12.096890947021508,-17.70019416911886
5.1652797923061815,3.8499730623295414,0.4347531690433244,-2.8377031984697134,13.011601583738626,-19.183469556104942
5.2037795229294765,3.9800890781669276,0.40637613705862724,-3.0295378940307627,14.098328031367304,-20.854791214114066
5.243580413711146,4.121072358480601,0.3760807581183196,-3.2380858061719033,15.387025724351698,-22.755801269570423
5.284791137295952,4.274942615724117,0.34369990005660056,-3.4656438188676075,16.913559069447135,-24.93614706513106
5.3275405634531925,4.444078206418588,0.3090434618679245,-3.7150052895189183,18.719945056817522,-27.453633551922476
5.371981345517378,4.6312776569867635,0.2718934089727353,-3.989541625038143,20.853235852299157,-30.37244194746856
5.418294122087246,4.839810015509755,0.23199799272235386,-4.293266044512829,23.36114712399995,-33.75675545010305
5.466692222242343,5.073421486749755,0.18906533227722555,-4.63083359901386,26.28040885580863,-37.65414639754561
5.51742643710984,5.336225575307841,0.14275699628708693,-5.007375062989316,29.609523103590334,-42.05706092848675
5.5707886928629184,5.632320806343745,0.09268324565719377,-5.427945672274183,33.24952689208402,-46.819396003675166
5.627111900926356,5.964816075264585,0.038403788934451934,-5.896139632310935,36.88349921975272,-51.48712102518618
5.686760061679002,6.333651067462112,-0.020557607388657417,-6.4110108425627965,39.754973848098146,-54.98705339436543
5.750096572353623,6.731200805943094,-0.08466771581428538,-6.960881376506451,40.33976406329807,-55.16616807927047
5.817408580413054,7.134598446576074,-0.1542765295793499,-7.512543057299156,36.12374600401599,-48.48031775789486
5.888754564878814,7.495835906616234,-0.22940196015234146,-7.997346234878104,24.290309124040597,-30.96235132324994
5.963712923944977,7.73873899785664,-0.3093754225011225,-8.306969748110603,4.473021529590693,-2.093725898504706
6.041100313923543,7.7834692131525465,-0.39244511998222853,-8.32790700709565,-17.965277785886496,30.585468676150228
6.118935006055069,7.603816435293681,-0.475724190053185,-8.022052320334147,-34.42274916250113,54.97367755420448
6.194973170408006,7.25958894366867,-0.5559447132565265,-7.472315544792102,-40.94897988248521,65.48392373723513
6.267569059844693,6.850099144843818,-0.6306678687044476,-6.817476307419751,-40.02090908028012,65.54082818134144
6.336070051293131,6.449890054041017,-0.6988426317786451,-6.162068025606336,-35.684124461641574,60.78172279612669
6.400568951833541,6.093048809424602,-0.7604633120347085,-5.55425079764507,-30.52366954256592,54.81639197297764
6.4614994399277865,5.7878121139989425,-0.8160058200111592,-5.006086877915293,-25.654307035585532,49.20692430461064
6.519377561067776,5.531269043643087,-0.8660666887903121,-4.5140176348691865,-21.4163087181719,44.43443741036568
6.574690251504206,5.3171059564613685,-0.911206865139004,-4.06967326076553,-17.83671855210253,40.54049194769344
6.62786131106882,5.138738770940344,-0.9519035977466592,-3.6642683412885955,-14.840622142194775,37.42106649708401
6.679248698778223,4.990332549518396,-0.9885462811595451,-3.290057676317755,-12.33348271781197,34.941334768223804
6.729152024273407,4.866997722340276,-1.0214468579227227,-2.9406443286355173,-10.229128793746076,32.97489621214215
6.77782200149681,4.764706434402815,-1.050853301209078,-2.6108953665140957,-8.456917630634853,31.414054455395405
6.825469065840839,4.680137258096467,-1.0769622548742188,-2.2967548219601417,-6.9615858892879,30.169942269084785
6.872270438421803,4.610521399203588,-1.0999298030938203,-1.9950553992692939,-5.700932589910416,29.169673535519657
6.918375652413839,4.553512073304484,-1.1198803570865132,-1.7033586639140972,-4.643178661431689,28.35311530597173
6.963910773146884,4.507080286690167,-1.1369139437256541,-1.4198275108543799,-3.764587944888141,27.670116463299713
7.0089815760137855,4.469434407241286,-1.151112218834198,-1.1431263462213828,-3.047474880353182,27.078379938803344
7.0536759200861985,4.438959658437754,-1.1625434822964118,-0.8723425468333493,-2.478572655407052,26.541940697238317
7.098065516670576,4.414173931883683,-1.1712669077647453,-0.6069231398609661,-2.0476998128312305,26.030145253492293
7.142207255989413,4.393696933755371,-1.177336139163355,-0.3466216873260432,-1.7466681282822598,25.51701746888246
7.1861442253269665,4.376230252472548,-1.1808023560366154,-0.09145151263721857,-1.5683908256616523,24.980901446512405
7.229906527851692,4.360546344215932,-1.1817168711629875,0.15835750182790548,-1.5061666610055873,24.404282582044626
7.2735119912938515,4.345484677605875,-1.1801332961447084,0.40240032764835176,-1.5531278313079417,23.773699128031414
7.31696683806991,4.329953399292796,-1.1761092928682249,0.6401373189286659,-1.7018466493643576,23.079669302049385
7.3602663720628385,4.312934932799152,-1.1697079196789382,0.8709340119491598,-1.944097418818784,22.31657396187223
7.40339572139083,4.293493958610964,-1.1609985795594466,1.094099751567882,-2.2707667513085026,21.48245256313055
7.44633066097694,4.270786291097878,-1.1500575820437677,1.3089242771991876,-2.6718991392866513,20.578689866272317
7.48903852388792,4.244067299705012,-1.1369683392717758,1.5147111758619107,-3.1368568021112724,19.609591054743444
7.53147919688497,4.2126987316839,-1.1218212275131567,1.7108070864093452,-3.654565630242542,18.58186135853071
7.573606184201808,4.176153075381475,-1.1047131566490633,1.8966256999946522,-4.213814165978158,17.50402072063854
7.615367714955623,4.134014933721693,-1.0857468996491169,2.0716659072010377,-4.80357108683492,16.385792830956706
7.65670786429284,4.085979222853344,-1.0650302405771064,2.235523835510605,-5.413288925381272,15.237510281850305
7.6975676565213735,4.031846333599531,-1.0426750022220004,2.387898938329108,-6.033167319048261,14.069574069348667
7.737886119857369,3.9715146604090483,-1.0187960128387092,2.5285946790225946,-6.654356902631209,12.891997504768035
7.77760126646146,3.9049710913827362,-0.9935100660484832,2.6575146540702748,-7.269093718166517,11.71405370747375
7.8166509773752875,3.832280154201071,-0.9669349195077805,2.7746551911450124,-7.870762436455717,10.54403422533578
7.854973778917298,3.753572529836514,-0.9391883675963304,2.88009553339837,-8.453893754375947,9.389115697965659
7.892509504215663,3.6690335922927546,-0.9103874122623467,2.9739866903780268,-9.014106452873714,8.255323030251045
7.929199840138591,3.5788925277640176,-0.8806475453585664,3.056539920680537,-9.5480075915719,7.147571861543522
7.964988765416232,3.4834124518482987,-0.850082146151761,3.128015639295972,-10.053065337142453,6.069770236163141
7.999822889934714,3.382881798476874,-0.8188019897588013,3.1887133416576035,-10.527468351775417,5.024958947895173
8.033651707919484,3.27760711495912,-0.7869148563422252,3.2389629311365553,-10.969983975322071,4.015471473578006
8.066427779069075,3.1679072752058994,-0.7545252270308597,3.2791176458723355,-11.379825082156918,3.043097098626711
8.098106851821134,3.05410902438433,-0.7217340505721364,3.3095486168586024,-11.756532872490213,2.109234192793041
8.128647942064978,2.9365436956594277,-0.6886385644035503,3.3306409587865327,-12.099880260415347,1.2150241532422656
8.158013379021572,2.8155448930552742,-0.655332154815685,3.3427912003189553,-12.409798141744584,0.36145996106538447
8.186168827952125,2.6914469116378283,-0.6219042428124955,3.346405799929609,-12.68632477589992,-0.4505336157152859
8.213083297068502,2.564583663878829,-0.5884401848131994,3.3419004637724563,-12.92957685014997,-1.2200485116154416
8.23872913370729,2.4352878953773294,-0.5550211801754749,3.329699978656302,-13.139739525049677,-1.9461687655387498
8.263082012661064,2.3038905001268324,-0.5217241803889119,3.3102382910009145,-13.31707187840141,-2.627969452560472
8.286120917662332,2.170719781342818,-0.4886217974789027,3.2839585964753097,-13.461923650478447,-3.2645346609001527
8.307828115475761,2.0361005448380336,-0.4557822115141496,3.251313249866308,-13.574759016996422,-3.8549893961870723
8.328189120924142,1.9003529546680693,-0.4232690790154865,3.2127633559044373,-13.656183242863214,-4.3985400901954765
8.347192650470822,1.7637911222394371,-0.39114144545644214,3.1687779550024824,-13.706968455751966,-4.894518564180535
8.364830561693216,1.6267214376819175,-0.3594536659064173,3.119832769360677,-13.728075372067899,-5.342424787368256
8.381097776070035,1.4894406839612384,-0.32825533821281055,3.0664085214869945,-13.720668548870114,-5.7419645086246875
8.395992182909648,1.3522339984725373,-0.2975912529979406,3.0089888764007475,-13.686123558097743,-6.093078745318162
8.409514522894373,1.2153727628915598,-0.2675013642339331,2.948058088947566,-13.626025316988146,-6.395963105248644
8.421668250523288,1.0791125097216783,-0.23802078334445745,2.8840984578950795,-13.542157597757951,-6.65107591412487
8.432459375620505,0.9436909337440987,-0.20917979876550666,2.817587698753831,-13.436484426695118,-6.859135049103737
8.441896284957947,0.8093260894771476,-0.18100392177796834,2.7489963482627937,-13.311124627864979,-7.021104178607786
8.449989545852718,0.6762148431984978,-0.1535139582953404,2.678785306476716,-13.168321146350497,-7.13816973803225
8.456751694284703,0.5445316317349929,-0.12672610523057323,2.6074036090963935,-13.010406994262688,-7.211710407870267
8.462197010602052,0.41442756179236595,-0.1006520691396093,2.535286505017691,-12.839769709405003,-7.243261102438723
8.466341286219976,0.2860298646983159,-0.07529920408943239,2.462853893993304,-12.658816123864293,-7.234473537862752
8.469201584866958,0.15944170345967298,-0.05067066514949935,2.3905091586146763,-12.469939038832493,-7.187075354126636
8.470796001901554,0.03474231307134805,-0.026765573563352584,2.31863840507341,-12.275487127546288,-7.102829552601196
8.471143425032269,-0.08801255820411484,-0.003579189512618486,2.247610109547398,-12.077739075136222,-6.983495715357482
8.470263299450227,-0.20878994895547706,0.018896911582855495,2.1777751523938234,-11.878882643699596,-6.830794132438106
8.468175399960673,-0.32757877539247304,0.040674663106793726,2.1094672110694423,-11.680999048642674,-6.646373610363794
8.464899612206748,-0.44438876587889975,0.06176933521748815,2.0430034749658046,-11.486052767029115,-6.431783395360241
8.460455724547959,-0.5592492935491908,0.08219936996714619,1.9786856410122022,-11.295886682126271,-6.1884493366717415
8.454863231612467,-0.6722081603704535,0.10198622637726822,1.9168011476454847,-11.112222306050786,-5.917654150232632
8.448141150008762,-0.7833303834309614,0.12115423785372306,1.8576246061431583,-10.936664714701994,-5.620521425812142
8.440307846174452,-0.8926970305779813,0.13973048391515464,1.8014193918850367,-10.770711772555709,-5.298002851198455
8.431380875868673,-1.0004041483035384,0.157744677834005,1.7484393633730522,-10.615767213469228,-4.950868000809219
8.421376834385637,-1.1065618204382306,0.17522907146773553,1.69893068336496,-10.473157170340096,-4.579695946494077
8.410311216181254,-1.2112933921416316,0.19221837830138513,1.6531337239000192,-10.344149804021049,-4.184867886996268
8.398198282259838,-1.314734890181842,0.20874971554038532,1.6112850450300567,-10.229977763658034,-3.766559950836917
8.38505093335802,-1.4170346678184225,0.22486256599068588,1.5736194455216874,-10.131863310990635,-3.3247352967633566
8.370880586679835,-1.5183533009283288,0.24059876044590275,1.5403720925540538,-10.051046055848618,-2.8591346085428584
8.355697053670552,-1.6188637614868149,0.25600248137144327,1.5117807464686253,-9.988813376146332,-2.3692640500148947
8.339508416055683,-1.7187518952482783,0.27112028883612954,1.4880881059684763,-9.946533731348907,-1.854379706513028
8.3223208971032,-1.8182172325617674,0.2860011698958143,1.469544308903346,-9.925693222695955,-1.3134674863241649
8.304138724777582,-1.917474164788727,0.3006966129848478,1.4564096340401043,-9.9279359056383,-0.7452173893970692
8.284963983129694,-2.01675352384511,0.31526070932524886,1.4489574601461335,-9.955108518355656,-0.14799097215573237
8.264796447891243,-2.1163046090286666,0.3297502839267102,1.447477550424576,-10.009310450781285,0.48021924533854926
8.243633401800956,-2.2163977135364794,0.34422505943095594,1.4522797428779615,-10.092949931956925,1.1418397536354956
