th1 (rad),w1 (rad/s),th2 (rad),w2 (rad/s),a1 (rad/s^2),a2 (rad/s^2)
0.061921062864179255,-0.8175401213911405,2.805816146880855,-1.7833859845713718,-2.779878513509032,-6.050905142210577
0.053745661650267854,-0.8453389065262309,2.7879822870351414,-1.8438950359934776,-2.6636761021276243,-6.12243619373483
0.045292272585005545,-0.8719756675475071,2.7695433366752065,-1.9051193979308259,-2.5378422433621126,-6.190756995331667
0.03657251590953047,-0.8973540899811282,2.750492142695898,-1.9670269678841426,-2.40195311739828,-6.255415323848175
0.02759897500971919,-0.921373621155111,2.7308218730170566,-2.0295811211226242,-2.2555764994189533,-6.315937869778141
0.01838523879816808,-0.9439293861493006,2.7105260618058304,-2.0927404998204056,-2.0982760727129435,-6.371834825178112
0.008945944936675073,-0.96491214687643,2.689598656807626,-2.1564588480721865,-1.929616610289846,-6.422605647232147
-0.0007031765320892266,-0.9842083129793284,2.668034068326904,-2.220684904544508,-1.7491700700324522,-6.467746107374029
-0.010545259661882512,-1.001700013679653,2.645827219281459,-2.2853623656182482,-1.5565226267592382,-6.506756720750618
-0.020562259798679042,-1.0172652399472455,2.6229735956252767,-2.3504299328257545,-1.351282635720611,-6.53915262794397
-0.0307349121981515,-1.0307780663044517,2.599469296297019,-2.415821459105194,-1.1330894854225073,-6.564474969366273
-0.041042692861196016,-1.0421089611586767,2.575311081705967,-2.4814662087988566,-0.9016232529842255,-6.5823037520069345
-0.051463782472782785,-1.0511251936885189,2.5504964196179785,-2.547289246318926,-0.656615022668813,-6.5922721581122605
-0.06197503440966797,-1.057691343915207,2.525023527154789,-2.6132119679000483,-0.3978576685300736,-6.594082186404406
-0.07255194784882005,-1.0616699206005076,2.4988914074757886,-2.6791527897640925,-0.1252168367683037,-6.587521449880973
-0.08316864705482513,-1.0629220889681905,2.4720998795781477,-2.7450280042629025,0.1613582053445335,-6.572480882300993
-0.09379786794450704,-1.0613085069147452,2.4446495995355186,-2.8107528130859123,0.46182425607467453,-6.548973031427118
-0.1044109530136545,-1.0566902643539984,2.4165420714046597,-2.8762425434001835,0.7760348686818261,-6.517150545312203
-0.11497785565719448,-1.04892991566718,2.387779645970658,-2.9414140488533054,1.103732567745255,-6.477324393773859
-0.12546715481386628,-1.0378925899897276,2.358365505482125,-3.006187292791044,1.444543159370591,-6.429981316923469
-0.13584608071376356,-1.0234471583960216,2.328303632554215,-3.0704871059602787,1.797972726142529,-6.375799962969459
-0.14608055229772376,-1.0054674311345964,2.297598761494612,-3.134245105589973,2.163407897335872,-6.315665175335324
-0.15613522660906973,-0.9838333521612377,2.2662563104387123,-3.1974017573433264,2.5401199561517958,-6.250679920756881
-0.1659735601306821,-0.9584321525997197,2.234282292865279,-3.2599085565508954,2.9272732859564834,-6.182174420622449
-0.1755578816566793,-0.9291594197401548,2.20168320729977,-3.3217303007571197,3.3239385661769147,-6.1117121607319875
-0.18484947585408085,-0.8959200340783857,2.1684659042921988,-3.38284742236444,3.7291110078794594,-6.041092610774667
-0.1938086761948647,-0.8586289239995911,2.134637430068554,-3.4432583484721864,4.141733774434074,-5.972350682189199
-0.2023949654348606,-0.8172115862552504,2.1002048465838326,-3.5029818552940784,4.5607265725724835,-5.907753186678827
-0.2105670812974131,-0.7716043205295255,2.065175028030892,-3.5620593871608666,4.98501923511215,-5.849792819672155
-0.21828312450270837,-0.721754128178404,2.0295544341592833,-3.6205573153575883,5.413589962628782,-5.8011804733834405
-0.2255006657844924,-0.6676182285521162,1.9933488610057073,-3.6785691200914226,5.845507762992365,-5.764836971525322
-0.23217684807001357,-0.6091631509221925,1.9565631698047932,-3.736217489806676,6.279978540962166,-5.7438856009541315
-0.2382684795792355,-0.5463633655125709,1.9192009949067264,-3.7936563458162174,6.716394260179324,-5.741647085031044
-0.2437321132343612,-0.47919942291077766,1.8812644314485643,-3.851072816666528,7.154384640054467,-5.761638892971067
-0.24852410746346898,-0.407655576510233,1.842753703281899,-3.9086892055962386,7.593870970238957,-5.807581007353219
-0.25260066322857133,-0.3317168668078434,1.8036668112259366,-3.966765015669771,8.035121831689349,-5.88341048249774
-0.25591783189664974,-0.2513656484909499,1.763999161069239,-4.025599120494748,8.47881080752164,-5.993307330065487
-0.2584314883815592,-0.16657754041573347,1.7237431698642915,-4.0855321937954026,8.926076646085463,-6.141734481375031
-0.26009726378571657,-0.07731677395487885,1.6828878479263376,-4.146949538609153,9.378586795367791,-6.333494819272318
-0.26087043152526534,0.016469093998799075,1.6414183525402462,-4.210284486801876,9.838605748744259,-6.573808567708255
-0.26070574058527735,0.11485515148624166,1.5993155076722274,-4.276022572478959,10.309070205929848,-6.868414691380917
-0.2595571890704149,0.21794585354554014,1.5565552819474378,-4.344706719392768,10.793673624451598,-7.223700392329113
-0.2573777305349595,0.32588258979005613,1.51310821475351,-4.416943723316059,11.296963254359689,-7.646863262327678
-0.25411890463705894,0.438852222333653,1.4689387775203493,-4.493412355939336,11.824453099509826,-8.146111057792053
-0.24973038241372242,0.5570967533287513,1.4240046539609559,-4.574873466517256,12.38275622210219,-8.730904174313533
-0.2441594148804349,0.6809243155497732,1.3782559192957833,-4.662182508260392,12.979739007207515,-9.412245228377268
-0.23735017172493716,0.8107217056218483,1.3316340942131795,-4.756304960544164,13.62469768540682,-10.203017752783596
-0.2292429546687187,0.9469686824759165,1.284071044607738,-4.858335138072,14.328552174125665,-11.118370046116041
-0.21977326784395954,1.0902542042171732,1.235487693227018,-4.969518838533161,15.104041514284319,-12.176127189207811
-0.2088707258017878,1.2412946193600165,1.1857925048416864,-5.091280110425239,15.965883919535232,-13.397187518202177
-0.19645777960818764,1.400953458555369,1.134879703737434,-5.225251985607261,16.930823472337146,-14.805806858323805
-0.18244824502263396,1.5702616932787403,1.0826271838813615,-5.373310054190499,18.017407455875876,-16.429570823015077
-0.16674562808984655,1.750435767837499,1.0288940833394564,-5.53760576242065,19.245190834710407,-18.298657796754444
-0.14924127041147156,1.9428876761846032,0.9735180257152499,-5.720592340388195,20.63278776909469,-20.44361983317418
-0.12981239364962552,2.14921555387555,0.916312102311368,-5.925028538719936,22.193677024957264,-22.890205432130983
-0.10832023811087002,2.3711523241251227,0.8570618169241686,-6.153930593041246,23.927737300947783,-25.64846067124404
-0.0846087148696188,2.6104296971346006,0.7955225109937561,-6.410415199753687,25.804873693647565,-28.691091935628823
-0.05850441789827279,2.8684784340710765,0.7314183589962193,-6.6973261191099756,27.734557485112315,-31.91249261152706
-0.029819633557562026,3.1458240089221996,0.6644450978051195,-7.016451045225246,29.512026074934475,-35.0554075224742
0.0016386065316599703,3.440944269671544,0.594280587352867,-7.367005120449988,30.731448116351366,-37.59123364734827
0.036048049228375414,3.748258750835058,0.5206105361483672,-7.74291745692347,30.670313075512382,-38.55865730195355
0.073530636736726,4.054961881590182,0.44318136157913246,-8.128504029943006,28.207382889408013,-36.44505388679613
0.11408025555262782,4.337035710484262,0.3618963212797024,-8.492954568810967,21.975870824584664,-29.38801616417582
0.15745061265747046,4.556794418730108,0.2769667755915927,-8.786834730452725,11.09340621617133,-16.169750331593935
0.20301855684477155,4.667728480891822,0.18909842828706547,-8.948532233768663,-3.5271241469025023,1.9879200499146235
0.24969584165368977,4.632457239422797,0.09961310594937883,-8.928653033269518,-18.55726552889382,20.582710205341844
0.29602041404791773,4.4468845841338585,0.010326575616683653,-8.722825931216098,-30.026112375473893,34.280838769154045
0.3404892598892563,4.14662346037912,-0.07690168369547733,-8.380017543524557,-36.134892884082035,40.755840640956706
0.3819554944930475,3.7852745315382994,-0.1607018591307229,-7.97245913711499,-37.74274035400012,41.28803248383563
0.4198082398084305,3.407847127998298,-0.2404264505018728,-7.559578812276634,-36.70126764872173,38.44451718694078
0.4538867110884135,3.040834451511081,-0.31602223862463913,-7.175133640407226,-34.5144593015575,34.26254225557789
0.4842950556035243,2.6956898584955056,-0.3877735750287114,-6.832508217851447,-32.04534414588217,29.882497637409887
0.5112519541884794,2.375236417036684,-0.45609865720722587,-6.533683241477348,-29.693629416399254,25.81236043117056
0.5350043183588462,2.0783001228726916,-0.5214354896219994,-6.275559637165642,-27.60672902309667,22.22389255561524
0.5557873195875731,1.802232832641725,-0.5841910859936558,-6.05332071160949,-25.813624210656187,19.136328680710182
0.5738096479139904,1.5440965905351631,-0.6447242931097507,-5.861957424802388,-24.29409307450165,16.509414910387928
0.589250613819342,1.3011556597901466,-0.7033438673577745,-5.696863275698509,-23.01106466717865,14.285734562013747
0.6022621704172434,1.07104501311836,-0.7603125001147596,-5.554005930078372,-21.9246454084145,12.408278176834214
0.6129726205484269,0.851798559034215,-0.8158525594155434,-5.42992314831003,-20.9976314138952,10.826753317162389
0.621490606138769,0.641822244895263,-0.8701517908986437,-5.321655615138406,-20.19725225082653,9.499051732870461
0.6279088285877217,0.43984972238699765,-0.9233683470500278,-5.226665097809701,-19.49534414083449,8.390788940656723
0.6323073258115917,0.24489628097865274,-0.9756349980281248,-5.142757208403134,-18.867941426749322,7.474194494365737
0.6347562886213782,0.0562168667111595,-1.027062570112156,-5.068015263459477,-18.29471585590692,6.726888253048416
0.6353184572884898,-0.12673029184790968,-1.0777427227467509,-5.000746380928993,-17.758438565092096,6.130748225083997
0.6340511543700107,-0.3043146774988307,-1.1277501865560409,-4.939438898678152,-17.244525622076047,5.670933708722704
0.6310080075950224,-0.47675993371959113,-1.1771445755428225,-4.882729561590925,-16.740678367932464,5.335069917166897
0.6262404082578265,-0.6441667173989158,-1.2259718711587317,-4.829378862419256,-16.236609455890587,5.112579861724345
0.6197987410838373,-0.8065328119578217,-1.2742656597829243,-4.778253063802013,-15.72383825333916,4.994144532370354
0.6117334129642591,-0.9637711944912133,-1.3220481904209445,-4.728311618478309,-15.195537811976463,4.971273689397308
0.602095701019347,-1.115726572610978,-1.3693313066057275,-4.678598881584336,-14.646416628232178,5.035972570348333
0.5909384352932372,-1.2621907388932998,-1.4161172954215708,-4.628239155880853,-14.07262048755947,5.180492699057174
0.5783165279043042,-1.4029169437688944,-1.4623996869803793,-4.576434228890281,-13.471642220746508,5.397157075409097
0.5642873584666153,-1.5376333659763595,-1.5081640292692822,-4.52246265813619,-12.842229952877053,5.678251178662524
0.5489110248068517,-1.66605566550513,-1.553388655850644,-4.465680146349564,-12.184287268656202,6.015971545344484
0.5322504681518004,-1.787898538191692,-1.5980454573141396,-4.40552043089612,-11.498761541005841,6.402423421146261
0.5143714827698835,-1.9028861536017505,-1.6421006616231009,-4.341496196684657,-10.787519344169272,6.829658423152197
0.495342621233866,-2.0107613470434433,-1.6855156235899473,-4.273199612453135,-10.053210250682769,7.289742575424998
0.4752350077634316,-2.111293449550271,-1.7282476197144787,-4.200302186698885,-9.299122246045979,7.774844753038416
0.45412207326792886,-2.204284672010731,-1.7702506415814676,-4.122553739168501,-8.529033363512694,8.277335675995534
0.43207922654782155,-2.2895750056458577,-1.8114761789731526,-4.039780382408546,-7.747064870628002,8.789888236374566
0.409183476491363,-2.367045654352138,-1.8518739827972381,-3.9518815000448004,-6.957541419761726,9.305571125355426
0.3855130199478416,-2.436621068549755,-1.891392797797686,-3.858825788791246,-6.164863065964632,9.817929368681908
0.36114680926234405,-2.498269699209401,-1.9299810556855985,-3.760646495104427,-5.373393075942282,10.321047328100558
0.33616411227025006,-2.552003629968824,-1.9675875206366429,-3.6574360218234214,-4.587364162280534,10.80959179131392
0.3106440759705618,-2.597877271591629,-2.004161880854877,-3.549340103910282,-3.810804355150199,11.278834755855975
0.2846653032546455,-2.635985315143131,-2.03965528189398,-3.4365517563517223,-3.047482340023726,11.724657237683006
0.2583054501032142,-2.666460138543368,-2.074020799457497,-3.319305183974892,-2.300870886575725,12.143536772943717
0.2316408487177805,-2.6894688474091253,-2.107213851297246,-3.197869816245455,-1.5741260708446567,12.532522158381829
0.20474616024368925,-2.705210108117572,-2.1391925494597004,-3.072544594661637,-0.8700794020766769,12.889199378064404
0.17769405916251352,-2.7139109021383385,-2.169917995406317,-2.943652600880993,-0.19123971396229875,13.211652629294777
0.15055495014113013,-2.7158232992779614,-2.1993545214151267,-2.8115360745880453,0.4601982640815185,13.498423965121535
0.12339671714835052,-2.7112213166371464,-2.227469882161007,-2.67655183493683,1.0823414343060855,13.748474414560935
0.09628450398197905,-2.7003979022940854,-2.2542354005103755,-2.5390670907912205,1.6735842527979568,13.961148632468253
0.06928052495903819,-2.683662059766106,-2.2796260714182877,-2.399455604466538,2.2325947593834967,14.136144272346504
0.042443904361377134,-2.661336112172271,-2.303620627462953,-2.258094161743073,2.7583018162466977,14.273486456833613
0.015830543239654424,-2.633753094009804,-2.326201569080384,-2.115359297174737,3.249884076184059,14.373507012151714
-0.010506987700443615,-2.6012542532479634,-2.347355162052131,-1.9716242270532198,3.706760699851989,14.436827582327657
-0.03651953023292325,-2.5641866462494436,-2.3670714043226635,-1.8272559512299433,4.128583449328282,14.464345372309097
-0.06216139669541769,-2.522900811756161,-2.3853439638349627,-1.6826124975068524,4.515229518761734,14.457220091734897
-0.0873904048129793,-2.4777485165685436,-2.4021700888100312,-1.5380402965895035,4.866794324185323,14.41686067131614
-0.11216788997866474,-2.4290805733266905,-2.417550491775926,-1.3938716898763421,5.183583454716112,14.344910476201923
-0.13645869571193164,-2.3772447387795292,-2.4314892086746895,-1.250422585114323,5.466103068613423,14.243230010468722
-0.16023114309972694,-2.322583708093395,-2.443993434525833,-1.1079902850096357,5.715048176337387,14.113876453745236
-0.1834569801806609,-2.265433226330021,-2.4550733373759295,-0.9668515204721834,5.931288462050191,13.959079753393011
-0.2061113124439611,-2.206120341709519,-2.4647418525806515,-0.8272607229382533,6.1158515276996885,13.781215374379748
-0.2281725158610563,-2.1449618264325223,-2.473014459810034,-0.6894485691944557,6.269903674621318,13.582774150217816
-0.24962213412538153,-2.0822627896863093,-2.4799089455019785,-0.5536208276922776,6.394728545051647,13.366329956042424
-0.27044476202224466,-2.018315504235793,-2.485445153778901,-0.4199575281318534,6.491704113845729,13.13450612211441
-0.29062791706460256,-1.9533984630973358,-2.4896447290602195,-0.2886124669107093,6.562278638743809,12.88994161523903
-0.3101619016955759,-1.8877756767098977,-2.4925308537293267,-0.159713050758319,6.607946241453162,12.63525803813289
-0.32903965846267486,-1.821696214295366,-2.49412798423691,-0.03336047037699008,6.630222802785555,12.373028441440962
-0.3472566206056285,-1.7553939862675105,-2.49446158894068,0.09036981403741953,6.630622818803008,12.105748824218134
-0.3648105604683036,-1.6890877580794805,-2.493557890800306,0.21142730227960088,6.610637790276458,11.835813033868927
-0.38170143804909845,-1.622981380176716,-2.49144361777751,0.3297854326182902,6.5717166154936155,11.5654915845368
-0.3979312518508656,-1.5572642140217798,-2.488145763451327,0.4454403484636582,6.515248337818205,11.296914711703966
-0.4135038939910834,-1.4921117306435978,-2.48369135996669,0.5584094955806979,6.442547475048894,11.032059785968544
-0.42842501129751936,-1.427686255893109,-2.478107265010883,0.6687300934403833,6.354842036745978,10.772743033005803
-0.44270187385645043,-1.364137835525649,-2.471419964076479,0.7764575237704413,6.253264225506151,10.5206153582723
-0.4563432522117069,-1.3016051932705874,-2.4636553888387747,0.8816636773531643,6.138843723694179,10.277161959037768
-0.4693593041444128,-1.2402167560336457,-2.454838752065243,0.984435296943542,6.012503391258593,10.043705324439392
-0.48176147170474926,-1.1800917221210598,-2.444994399095808,1.084872350187936,5.875057143924193,9.821411175299248
-0.4935623889259598,-1.1213411506818178,-2.4341456755939284,1.1830864619409285,5.727209743669199,9.61129687623539
-0.504775800432778,-1.0640690532451258,-2.422314810974519,1.2791994307032823,5.5695582132176344,9.41424185861489
-0.5154164909652292,-1.0083734711129495,-2.4095228166674865,1.3733418492894311,5.402594580834939,9.230999618962507
-0.5255002256763587,-0.9543475253046001,-2.395789398174592,1.4656518454790561,5.226709668174271,9.062210898249646
-0.5350437009294047,-0.9020804286228574,-2.3811328797198015,1.5562739544615525,5.04219764939676,8.90841769803058
-0.5440645052156332,-0.8516584521288898,-2.365570140175186,1.6453581314418582,4.84926113157745,8.770077845206393
-0.5525810897369221,-0.8031658408131153,-2.3491165588607674,1.7330589098939222,4.648016532150204,8.647579874522066
-0.5606127481450532,-0.7566856754916133,-2.331785969761828,1.819534708639143,4.438499556925865,8.541258053712788
-0.5681796048999693,-0.7123006799223546,-2.3135906226754366,1.9049472891762709,4.220670610623665,8.451407428176232
-0.5753026116991928,-0.6700939738161179,-2.294541149783674,1.9894613634580331,3.9944199999942898,8.378298808402038
-0.582003551437354,-0.630149773816175,-2.2746465361490937,2.0732443515420536,3.7595728171215477,8.32219366280878
-0.5883050491755158,-0.5925540456449595,-2.253914092633673,2.1564662881701415,3.515893417547531,8.283358910029534
-0.5942305896319654,-0.5573951114694842,-2.232349429751972,2.2392998772704367,3.2630894352231925,8.262081626970911
-0.5998045407466602,-0.5247642171172523,-2.2099564309792674,2.3219206935401457,3.0008153053303808,8.258683700821361
-0.6050521829178328,-0.4947560640639485,-2.186737224043866,2.404507530548359,2.728675298902559,8.273536452708367
-0.6099997435584723,-0.4674693110749229,-2.1626921487383823,2.487242895075443,2.446226113009881,8.307075245036613
-0.6146744366692215,-0.4430070499448241,-2.137819719787628,2.570313647525809,2.152979111485679,8.35981404930348
-0.6191045071686697,-0.4214772588299673,-2.11211658331237,2.653911788018844,1.8484023799594356,8.432359889760146
-0.6233192797569694,-0.40299323503037293,-2.0855774654321815,2.7382353869164455,1.5319228540464147,8.525426980749929
-0.6273492121072731,-0.3876740064899088,-2.058195111563017,2.823489656723945,1.2029289132273335,8.639850227221025
-0.6312259521721723,-0.37564471735763544,-2.0299602149957776,2.9098881589961554,0.8607740226570426,8.776597537176906
-0.6349823993457486,-0.36703697713106503,-2.000861333405816,2.9976541343679246,0.504782275638404,8.936780070106083
-0.6386527691170593,-0.361989154374681,-1.9708847920621366,3.0870219350689854,0.13425707608025939,9.121659070718259
-0.642272660660806,-0.3606465836138784,-1.9400145727114468,3.178238525776168,-0.25150524673784463,9.332647245849284
-0.6458791264969448,-0.36316163608125684,-1.9082321874536852,3.271564998234661,-0.6531943076349503,9.571301637700612
-0.6495107428577573,-0.36969357915760637,-1.8755165374713385,3.367278014611667,-1.0714533046914343,9.839303489944031
-0.6532076786493334,-0.3804081122045207,-1.8418437573252218,3.4656710495111076,-1.506830098974959,10.138418496774118
-0.6570117597713786,-0.3954764131942703,-1.8071870468301108,3.5670552344788486,-1.9597041075129904,10.470427789737345
-0.6609665239033213,-0.4150734542694002,-1.7715164944853223,3.671759512376222,-2.4301781268199805,10.83701566684438
-0.6651172584460153,-0.4393752355376,-1.7347988993615602,3.780129669044666,-2.91791962921492,11.239593883631706
-0.6695110108013913,-0.4685544318297492,-1.6969976026711135,3.892525607880983,-3.4219297243993556,11.679033641182663
