th1 (rad),w1 (rad/s),th2 (rad),w2 (rad/s)
1.8834568416637552,-0.11611001840928273,4.1398489243591055,2.3329419328067966
1.8822957414796624,-0.17381801068185856,4.163178343687173,2.378672374221359
1.8805575613728438,-0.23052844324197763,4.186965067429387,2.425061595144693
1.878252276940424,-0.28630825496099616,4.211215683380834,2.4720179873560983
1.875389194390814,-0.34123759217358024,4.235935863254395,2.5194447617963767
1.8719768184690784,-0.3954117385286119,4.261130310872359,2.5672371818479047
1.8680227010837922,-0.44894332263335585,4.286802682690838,2.615279397969861
1.8635332678574585,-0.5019648136738005,4.3129554766705365,2.663440872686144
1.8585136197207206,-0.5546312962896648,4.339589885397398,2.711572409615596
1.852967306757824,-0.6071234860337777,4.366705609493554,2.759501839834063
1.8468960718974863,-0.6596509019271739,4.394300627891894,2.8070294787748904
1.8402995628782146,-0.7124550486297683,4.422370922679643,2.853923553292212
1.8331750123919168,-0.7658123733676271,4.450910158212565,2.899915917656844
1.8255168886582405,-0.8200366490191225,4.479909317389134,2.9446985338692047
1.8173165221680492,-0.8754802949460564,4.509356302727825,2.9879213862923177
1.8085617192185885,-0.9325339879274196,4.5392355165907485,3.029192725269602
1.7992363793393145,-0.9916237542645174,4.569527443843445,3.0680827666525854
1.7893201417966693,-1.0532046038438179,4.60020827150997,3.1041321699628295
1.7787880957582312,-1.1177497207689577,4.631249593209598,3.1368667051954233
1.7676105985505415,-1.1857343369126747,4.662618260261553,3.1658193953465084
1.7557532551814148,-1.2576137713149487,4.694276454215018,3.190560966761133
1.7431771174682653,-1.333795798523178,4.7261820638826295,3.2107385386058125
1.7298391594830336,-1.414608544969468,4.758289449268688,3.2261210827541165
1.715693074033339,-1.500266438427499,4.790550660096229,3.2366483646885285
1.700690409649064,-1.5908381397002898,4.822917143743114,3.242478113649479
1.6847820282520611,-1.6862214983387365,4.855341924879609,3.244024567102552
1.6679198132686737,-1.7861309291817538,4.887782170550634,3.2419809356808513
1.650058503976856,-1.890101792973744,4.920201979907442,3.237319325433926
1.6311574860471185,-1.997514235561589,4.952575173161781,3.2312644726443183
1.6111823436915027,-2.107635783674865,4.984887817888224,3.2252419412311335
1.5901059858547542,-2.219678543420647,5.017140237300536,3.2208062319827295
1.5679092004205477,-2.3328640660605515,5.049348299620363,3.2195582381098595
1.5445805597599422,-2.446487664751937,5.081543882001462,3.2230634862631926
1.520115683112423,-2.5599745365370468,5.113774516864094,3.232782091648071
1.4945159377470525,-2.67292220523075,5.146102337780575,3.2500186298625966
1.467786715694745,-2.7851268266133262,5.178602524079201,3.275896144391981
1.439935447428612,-2.8965939215220056,5.2113614855231205,3.311354450884232
1.410969508213392,-3.0075364428242133,5.244475030031963,3.3571697330180865
1.3808941437851499,-3.118364416705375,5.278046727362144,3.41399064324495
1.3497104996180962,-3.229670760854662,5.312186633794593,3.482385735804568
1.3174137920095497,-3.342217537413112,5.347010491152639,3.5628977563468096
1.2839916166354186,-3.456926191756619,5.382639468716107,3.6561016618906197
1.2494223547178525,-3.57487456877555,5.419200485335013,3.7626648607183015
1.213673609030097,-3.6973029058792575,5.4568271339421965,3.883409785521539
1.1767005799713044,-3.825630701594032,5.495661231797412,4.019380427487752
1.138444272955364,-3.9614864027616465,5.535855036072289,4.171915860704464
1.0988294089277477,-4.106752247356933,5.577574194679333,4.342735140040596
1.0577618864541785,-4.263627313073279,5.621001546079739,4.534039338277981
1.0151256133234456,-4.434712763031349,5.666341939462519,4.748637906434699
0.9707784856931322,-4.623124199905032,5.713828318526867,4.990107769825917
0.9245472436940818,-4.8326362654027415,5.763729396225126,5.262993777023292
0.8762208810400544,-5.067862389937458,5.816359333995359,5.573055929969839
0.8255422571406797,-5.334463400181828,5.872089893295057,5.927556039514963
0.7721976231388614,-5.639351185477587,5.931365453690207,6.335538331715073
0.7158041112840856,-5.990779578106516,5.994720837007358,6.807955748923213
0.6558963155030204,-6.398025088007333,6.06280039449659,7.357229940365148
0.5919160646229471,-6.869894966730691,6.136372693900242,7.995183825605364
0.5232171149556402,-7.410236905593298,6.216324532156295,8.726798161304625
0.4491147458997072,-8.006603173588466,6.303592513769342,9.534407122742493
0.3690487141638225,-8.606477821650314,6.3989365849967665,10.344480199184895
0.28298393594731935,-9.08408832038081,6.502381386988615,10.98115373824304
0.19214305274351126,-9.246253047022977,6.612192924371046,11.174281521641936
0.09968052227328149,-8.971511614666507,6.723935739587465,10.753800167142007
0.009965406126616408,-8.377530004787074,6.831473741258885,9.882996035105503
-0.07380989392125434,-7.703180168024961,6.93030370160994,8.893113321453477
-0.15084169560150396,-7.093647814343714,7.019234834824475,7.984467364270404
-0.2217781737449411,-6.586648331365358,7.099079508467179,7.208303993137172
-0.28764465705859465,-6.175116500491234,7.171162548398551,6.554142837010986
-0.349395822063507,-5.842026079987703,7.236703976768661,5.9979531454579
-0.40781608286338406,-5.571402453771126,7.29668350822324,5.517287084260178
-0.46353010740109535,-5.350531668174551,7.3518563790658416,5.094278619269009
-0.5170354240828409,-5.169742339525092,7.402799165258531,4.71533101892592
-0.5687328474780918,-5.021725564572372,7.44995247544779,4.3701949063271845
-0.6189501031238156,-4.900902366694102,7.493654424511062,4.051131045160345
-0.6679591267907566,-4.8029308721138015,7.534165734962666,3.7522801025299555
-0.7159884355118946,-4.724340108860011,7.571688535987965,3.469218477190425
-0.7632318366004948,-4.66225941236622,7.606380720759869,3.1986549770601282
-0.809854430724157,-4.614216464513634,7.638367270530471,2.938227856983995
-0.8559965953692933,-4.57798478929469,7.667749549100311,2.6863707153368015
-0.9017764432622402,-4.551468535894501,7.694613256253679,2.4422230183356324
-0.9472911286211851,-4.532617802417782,7.719035486437035,2.205565865945501
-0.992617306645363,-4.51937164240844,7.74109114509649,1.9767667056178768
-1.0378110230694473,-4.5096283493661105,7.760858812152669,1.756719012853153
-1.0829073065631083,-4.501243621954865,7.778426002281201,1.5467654512503433
-1.127919742782657,-4.492056727321704,7.7938936567937045,1.3485964798972403
-1.1728403100558742,-4.479942871334067,7.807379621592677,1.1641212044002756
-1.2176397387692148,-4.462886995978445,7.81902083363668,0.9953133168898998
-1.2622686087289994,-4.439070847927884,7.828973966805579,0.8440414271394143
-1.3066593172082783,-4.406962356022663,7.837414381076973,0.7118986061308183
-1.350728940768505,-4.365395083583889,7.844533367138282,0.6000490641236985
-1.394382891604344,-4.3136264063171605,7.850533857779519,0.5091095110293873
-1.4375191556675155,-4.251366114366184,7.855624952889813,0.4390787433535207
-1.4800328168111774,-4.178771696706136,7.860015740323348,0.3893222585316792
-1.5218205337782387,-4.096411560127708,7.863908962908665,0.3586108570206233
-1.5627846493795157,-4.0052017517113585,7.867495071478872,0.34520506904101667
-1.6028366668966292,-3.9063246053869944,7.870947122169282,0.3469722349491207
-1.6418999129504992,-3.801138830816461,7.874416844518773,0.36152082126694957
-1.6799113012586637,-3.691090075607942,7.8780320527314425,0.386336954227348
-1.7168222020147432,-3.577629371559362,7.881895422273716,0.4189105591661316
-1.7525984957303369,-3.4621446579210677,7.886084527865377,0.4568420507739948
-1.7872199423095476,-3.345908235172548,7.890652948373116,0.49792440764916623
-1.8206790246612732,-3.2300408886660104,7.895632192449608,0.5401990506495473
-1.8529794335479333,-3.1154917405801243,7.901034182956104,0.5819868273612372
-1.8841343509537345,-3.0030317283060426,7.9068540512297165,0.6218974037249472
-1.914164668236795,-2.8932579627460444,7.913073025266966,0.6588214741403174
-1.9430972478642554,-2.78660602277123,7.919661240008369,0.6919105411996227
-1.9709633080919677,-2.68336738766415,7.926580345420366,0.7205487717310783
-1.9977969819686092,-2.583709580896791,7.9337858331376765,0.7443208136549824
-2.023634077777577,-2.487697086306071,7.941229041274227,0.7629786488824866
-2.0485110486406377,-2.395311612016873,7.948858827763051,0.7764097131391641
-2.0724641647608064,-2.306470754940203,7.956622924894443,0.7846077386185688
-2.0955288723102083,-2.221044522170236,7.964469002280628,0.7876471284794208
-2.117739317531911,-2.138869479997335,7.972345473565422,0.7856611749497667
-2.1391280123318843,-2.059760527360912,7.98020208531492,0.7788240808159214
-2.1597256176054933,-1.9835204389128245,7.987990326123079,0.7673365178614245
-2.1795608219946216,-1.9099474084829062,7.995663691301693,0.7514143294483947
-2.1986602960794506,-1.838840862460838,8.003177834596176,0.7312799314877358
-2.217048704704059,-1.7700058188016232,8.010490633911054,0.7071559630881047
-2.234748762892075,-1.703256052858951,8.017562193541936,0.6792607662668533
-2.2517813234206647,-1.638416305083268,8.024354801204604,0.6478053190497634
-2.2681654864714975,-1.5753237342299227,8.0308328543951,0.6129912981417861
-2.283918723813797,-1.5138287873926315,8.036962767376519,0.5750099996492742
-2.299057011687723,-1.4537956275337272,8.04271286737301,0.53404189522984
-2.3135949679630605,-1.3951022316504236,8.04805328632531,0.4902566445549939
-2.3275459902795648,-1.3376402489044692,8.05295585277086,0.44381342235056376
-2.3409223927686096,-1.2813146880392114,8.057393986994365,0.3948614495599236
-2.353735539649002,-1.2260434869955823,8.061342601489963,0.3435406438215116
-2.365995974518958,-1.1717570044409653,8.064778007928178,0.2899823251416287
-2.3777135445633677,-1.1183974625044153,8.067677831179594,0.2343099291186776
-2.388897519188412,-1.065918361926989,8.07002093047078,0.17663969305842864
-2.399556702807682,-1.0142838846751876,8.071787327401365,0.11708129046802386
-2.4096995416544336,-0.9634682944621312,8.072958140306046,0.055738397299226305
-2.419334224599055,-0.9134553422589231,8.073515524279038,-0.007290820592196878
-2.428468778021644,-0.8642376814909333,8.073442616073116,-0.07191330460169298
-2.4371111548365536,-0.815816295978755,8.072723483027099,-0.13804078735315242
-2.445269317796341,-0.7681999426190617,8.071343075153568,-0.2055895629128044
-2.4529513172225315,-0.721404610157603,8.069287179524439,-0.2744803404991364
-2.4601653633241076,-0.6754529950639453,8.066542376119447,-0.3446381772820788
-2.466919893274747,-0.6303739953767161,8.063095994346625,-0.4159924845749609
-2.473223633228514,-0.5862022233688167,8.058936069500875,-0.4884771007238808
-2.4790856554622023,-0.5429775379186538,8.054051298493636,-0.5620304232259622
-2.484515430841389,-0.500744597511844,8.048430994261377,-0.6365955920097761
-2.4895228768165074,-0.45955243479296287,8.04206503834128,-0.7121207153468452
-2.494118401164437,-0.419454053500517,8.03494383118781,-0.7885591294969626
-2.4983129416994423,-0.3805060484171078,8.02705823989284,-0.8658696828884546
-2.5021180021836136,-0.34276824862070504,8.018399543063955,-0.9440170353631188
-2.5055456846698205,-0.30630338380364824,8.008959372710324,-1.0229719627367373
-2.508608718507857,-0.27117677270508567,7.998729653082957,-1.1027116565967547
-2.511320486234908,-0.23745603175008168,7.987702536516989,-1.1832200088285798
-2.513695046552409,-0.2052108007712686,7.975870336428703,-1.2644878697715405
-2.5157471545601213,-0.17451248116822834,7.963225457730988,-1.3465132680845309
-2.5174922793718038,-0.1454339799901699,7.949760325050143,-1.429301579267093
-2.5189466191717056,-0.11804945115422316,7.935467309257472,-1.5128656282372757
-2.5201271136832477,-0.09243402226902571,7.920338652975099,-1.5972257093007254
-2.521051453905938,-0.06866349224264451,7.904366395882092,-1.6824095041269138
-2.5217380888283647,-0.046813980922647255,7.887542300840823,-1.7684518748315616
-2.5222062286375913,-0.02696150733748459,7.869857782092508,-1.8553945047854028
-2.522475843710966,-0.009181467562739739,7.851303837044654,-1.9432853541498403
-2.5225676583865932,0.006452023304618762,7.831870983503156,-2.0321778901916234
-2.522503138153547,0.019866968243488124,7.811549204601239,-2.1221300439641086
-2.5223044684711122,0.030994556553185396,7.7903279041615985,-2.2132028347936052
-2.5219945229055805,0.039770525520965695,7.768195875813662,-2.3054585920562363
-2.5215968176503707,0.04613688928004392,7.7451412898931,-2.3989586899501854
-2.5211354487575703,0.050044121256130614,7.721151702993598,-2.493760695504574
-2.520635007545009,0.0514538899857924,7.6962140960385526,-2.589914813338313
-2.520120468645151,0.05034246149016217,7.67031494790517,-2.687459493536047
-2.5196170440302494,0.04670489353312944,7.643440352969809,-2.7864160529297894
-2.519149995094918,0.04056015595438736,7.615576192440511,-2.8867821474763313
-2.5187443935353744,0.031957313761671005,7.586708370965748,-2.9885239280085263
-2.5184248203977577,0.020982901308031734,7.556823131685662,-3.0915667188592098
-2.5182149913846774,0.007769590405843315,7.52590746449707,-3.1957840863860008
-2.518137295480619,-0.007493795733250392,7.493949623633211,-3.300985222622518
-2.5182122334379513,-0.024550957923457954,7.460939771406985,-3.4069006714356367
-2.5184577430171857,-0.043065656791148266,7.426870764692628,-3.513166586643904
-2.518888399585097,-0.06260847795004712,7.391739098826189,-3.6193079509633628
-2.5195144843645974,-0.08264346783112379,7.355546019316556,-3.7247215173935264
-2.5203409190429085,-0.10251563395224414,7.3182988041426205,-3.8286596700035336
-2.521366075382431,-0.12144072945656602,7.280012207442585,-3.9302169330132566
-2.5225804826769966,-0.13849921212547928,7.240710038112453,-4.028321452268305
-2.5239654747982514,-0.15263671983734256,7.20042682358977,-4.121734356634303
-2.525491841996625,-0.16267373085085648,7.159209480023427,-4.209060348475618
-2.5271185793051334,-0.16732712488121068,7.117118876538671,-4.288772982467025
-2.5287918505539455,-0.16524594258052244,7.074231146714,-4.359257635681562
-2.530444309979751,-0.15506257469722987,7.030638570357184,-4.418873915986713
-2.5319949357267233,-0.13545879069718397,6.9864498311973176,-4.46603705454191
-2.533349523633695,-0.10524350053756265,6.941789460651899,-4.499314739485089
-2.5344019586390707,-0.06343624718689939,6.896796313257048,-4.517532243282353
-2.53503632111094,-0.009347747990456151,6.851620990824224,-4.519875300822834
-2.5351297985908445,0.05735286793202936,6.806422237815996,-4.505977986638345
-2.534556269911524,0.13659437870654684,6.7613624579496125,-4.475982774081444
-2.5331903261244584,0.22789130518607537,6.716602630208798,-4.430562586598103
-2.5309114130725976,0.3303669285344152,6.672297004342817,-4.370899777589463
-2.5276077437872533,0.44280972500841853,6.628588006566923,-4.298623574019748
-2.523179646537169,0.5637562015214901,6.585601770826726,-4.215713998078331
-2.517542084521954,0.6915893558581775,6.543444630845943,-4.1243850309622925
-2.5106261909633725,0.8246405564693223,6.502200780536319,-4.0269617516211955
-2.5023797853986793,0.9612836398262338,6.4619311630201075,-3.925765206328794
-2.492766949000417,1.1000128742687316,6.42267351095682,-3.823015510553443
-2.4817668202577297,1.2395001727051282,6.384443355851285,-3.720759294618286
-2.4693718185306786,1.3786305838639392,6.347235762905102,-3.6208232413480173
-2.455585512692039,1.5165179631010592,6.311027530491622,-3.5247919691461846
-2.4404203330610286,1.652504513449853,6.275779610800161,-3.4340062768785398
-2.42389528792653,1.7861486252548993,6.241439548031376,-3.3495767768200335
-2.4060338016739813,1.917205363775158,6.207943780263175,-3.272407938066931
-2.3868617480362295,2.0456033648838696,6.175219700882506,-3.2032281933540547
-2.366405714387391,2.171421079990238,6.1431874189489655,-3.1426226992808646
-2.3446915035874887,2.294864469790712,6.111761191956157,-3.091066337833943
-2.3217428588895817,2.416247507726008,6.080850528577818,-3.0489554545775244
-2.2975803838123214,2.535976275104994,6.050360974032043,-3.0166375749603156
-2.2722206210612717,2.6545370209916923,6.02019459828244,-2.9944389100005298
-2.2456752508513547,2.772488304901044,5.990250209182435,-2.982689874141108
-2.2179503678023442,2.8904572116867,5.960423310441024,-2.981749124207295
-2.189045795685477,3.00913959670999,5.93060581919895,-2.9920268251915676
-2.158954399718377,3.1293043596475596,5.900685550947035,-3.014007988403834
-2.1276613561219015,3.251801835769757,5.8705454710629965,-3.048276835243029
-2.095143337764204,3.3775765158020548,5.840062702710566,-3.095543229981123
-2.0613675726061835,3.507684439949057,5.809107270410754,-3.1566722973230465
-2.026290728206693,3.6433157294559075,5.777540547437524,-3.232718371323267
-1.989857570912134,3.7858227670439546,5.745213363724291,-3.324964345221567
-1.9519993432416944,3.936754409246557,5.711963720272076,-3.4349671592324618
-1.9126317991492288,4.097896092442816,5.677614048679751,-3.564609267395289
-1.8716528382248006,4.2713143403795195,5.641967956005798,-3.7161538388604867
-1.8289396948210053,4.459401106462127,5.604806417617193,-3.892296912775251
-1.784345683756384,4.6649068111393,5.565883448489441,-4.096200222205653
-1.7376966156449911,4.890937347332064,5.524921446267384,-4.33146896631363
-1.6887872421716705,5.140862947456767,5.481606756604248,-4.6019998891648175
-1.6373786126971028,5.418033270330449,5.4355867577126,-4.911549221646459
-1.5831982799937983,5.7250935795737785,5.3864712654961355,-5.262729560247823
-1.5259473441980604,6.0625305527002915,5.333843969893658,-5.654910402879234
-1.4653220386710575,6.425865543394171,5.2772948658648655,-6.080201085421437
-1.4010633832371158,6.800891509676476,5.216492855010651,-6.516667595993525
-1.3330544681403511,7.157372591905041,5.151326179050716,-6.919384028249404
-1.2614807422213008,7.445424075800171,5.082132338768222,-7.215289435856083
-1.187026501463299,7.6051853346562215,5.0099794444096615,-7.316859281125269
-1.1109746481167369,7.597958024324759,4.936810851598409,-7.166182835543737
-1.0349950678734892,7.4386546796948165,4.865149023242972,-6.781088145183839
-0.9606085210765409,7.18859880230376,4.797338141791133,-6.245489062204587
-0.8887225330535033,6.914011346278684,4.734883251169087,-5.651154900819138
-0.8195824195907165,6.657768829073702,4.678371702160896,-5.057751231632888
-0.7530047312999795,6.43874289916743,4.627794189844567,-4.49152834526892
-0.6886173023083052,6.2614755787108,4.582878906391878,-3.9586582392486713
-0.6260025465211972,6.124078769760377,4.543292323999391,-3.4562383493313824
-0.5647617588235935,6.022454511994158,4.508729940506077,-2.978230033155384
-0.5045372137036519,5.952133490102269,4.478947640174523,-2.518102261178095
-0.4450158788026292,5.908943078291439,4.453766617562742,-2.0698545943150597
-0.3859264480197148,5.889169119274966,4.433068071619592,-1.6283409875813364
-0.32703475682696515,5.889519218119579,4.416784661743778,-1.1893222190622483
-0.2681395646457694,5.907019569521798,4.404891439553156,-0.7494297465078394
-0.2090693689505514,5.9388991997542515,4.397397142088077,-0.3061135595618564
-0.14968037695300887,5.9824826560154385,4.394336006492458,0.14240105887782056
-0.08985555039285448,6.035099093077824,4.395760017081236,0.5971431764556441
-0.02950455946207623,6.094010914705726,4.401731448845792,1.058416009571658
0.03143554968498103,6.156363581582188,4.412315608941509,1.5258139068210235
0.09299918550080291,6.21915767502189,4.42757374800972,1.9982443704466604
0.1551907622510218,6.27924383006497,4.447556191714186,2.473962358319885
0.2179832005516715,6.333340341361398,4.472295815297385,2.950622461936295
0.28131660396528546,6.37807205330664,4.501802039916748,3.4253521221780785
0.34509732449835184,6.410027742468196,4.536055561138529,3.89484615013833
0.4091976019230338,6.425831887110749,4.575004022639912,4.355479926751355
0.4734559207941413,6.422225827044156,4.618558821907426,4.803436299061077
0.5376781790645828,6.396153091034868,4.666593184898036,5.234839843070796
0.6016397099749315,6.3448441623319125,4.7189415833287445,5.64589206434022
0.6650881515982506,6.26589698206746,4.775400503972147,6.033002157503336
