th1 (rad),w1 (rad/s),th2 (rad),w2 (rad/s),a1 (rad/s^2),a2 (rad/s^2)
2.268579501432436,3.0973287141225194,4.4322039271601215,-0.7883695223973375,-8.10910068005196,-3.0692409999786805
2.2995527885736613,3.016237707322,4.424320231936148,-0.8190619323971243,-7.647354220758536,-2.363907247044154
2.3297151656468813,2.9397641651144144,4.416129612612177,-0.8427010048675658,-7.222569898405386,-1.7068095963551855
2.3591128072980254,2.8675384661303607,4.407702602563501,-0.8597691008311177,-6.8329936250072585,-1.0952524482353803
2.387788191959329,2.7992085298802882,4.39910491155519,-0.8707216253134715,-6.476590368265226,-0.5261894835798322
2.415780277258132,2.734442626197636,4.390397695302055,-0.8759835201492698,-6.151167162866461,0.003582178164346108
2.443124703520108,2.6729309545689715,4.381637860100563,-0.8759476983676264,-5.854463999935683,0.4972802826557483
2.4698540130657975,2.6143863145696145,4.372878383116887,-0.870974895541069,-5.584218977475715,0.958037230524519
2.4959978762114936,2.5585441247948575,4.364168634161476,-0.8613945232358238,-5.338213285363151,1.3888319929018094
2.521583317459442,2.505161991941226,4.355554688929117,-0.8475062033068057,-5.11430072310763,1.792446426937694
2.546634937378854,2.4540189847101495,4.347079626896049,-0.8295817390374287,-4.910425604877469,2.171439780122604
2.5711751272259558,2.4049147286613746,4.338783809505674,-0.8078673412362026,-4.724632146157608,2.5281364987282764
2.5952242745125695,2.3576684071997986,4.330705136093313,-0.7825859762489199,-4.555067771517169,2.8646235727610394
2.6188009585845675,2.312117729484627,4.3228792763308235,-0.7539397405213095,-4.399982236432209,3.1827545630424843
2.6419221358794136,2.2681179071203053,4.31533987892561,-0.7221121948908846,-4.257724010648571,3.484158185002929
2.6646033149506168,2.2255406670138194,4.308118756976701,-0.6872706130408553,-4.12673501390146,3.7702498938815694
2.686858721620755,2.1842733168748047,4.301246050846292,-0.6495681141020396,-4.005544513024608,4.0422453535622225
2.708701454789503,2.1442178717445586,4.294750369705272,-0.6091456605664174,-3.8927627689916586,4.301175000789687
2.7301436335069487,2.105290244054642,4.288658913099608,-0.5661339105585205,-3.787074850982689,4.547899159630112
2.751196535947495,2.067419495544815,4.282997573994023,-0.5206549189622194,-3.6872349016776718,4.783123336107453
2.7718707309029433,2.0305471465280385,4.277791024804401,-0.47282368560114485,-3.5920610350289097,5.007413445172655
2.7921762023682235,1.9946265361777493,4.27306278794839,-0.4227495511494183,-3.5004309679044474,5.221210803966027
2.812122467730001,1.9596222264987049,4.268835292436895,-0.37053744310975806,-3.411278424944528,5.42484677679258
2.831718689994988,1.9255094422492596,4.2651299180057975,-0.31628897534183226,-3.3235903077956745,5.6185569865015665
2.850973784417481,1.8922735391713028,4.261967028252379,-0.2601034054768166,-3.236404582744867,5.80249502065534
2.869896519809194,1.8599094933438542,4.259365994197611,-0.2020784552702632,-3.1488088127028258,5.976745564352836
2.8884956147426326,1.828421405216826,4.2573452096449085,-0.14231099962673482,-3.0599392391669213,6.141336889184216
2.906779828794801,1.7978220128251567,4.255922099648641,-0.08089763073489267,-2.968980306372732,6.296252623015343
2.9247580489230525,1.7681322097614294,4.255113123341292,-0.017935104504739244,-2.8751645127420815,6.441442720854402
2.942439371020667,1.7393805646340086,4.254933772296245,0.04647932270380478,-2.777772473507313,6.576833554958211
2.959833176667007,1.7116028398989354,4.255398565523283,0.1122476582533869,-2.6761330825981084,6.702337043956395
2.9769492050659965,1.6848415090729543,4.256521042105817,0.17927102869295086,-2.5696236709957216,6.81785874684688
2.9937976201567262,1.6591452723629971,4.258313752392747,0.24744961616141967,-2.4576700721274976,6.923304858404286
3.0103890728803564,1.6345685716417222,4.260788248554361,0.3166826647454625,-2.339746521665329,7.018588057481576
3.0267347585967737,1.6111711064250689,4.263955075201816,0.3868685453202783,-2.215375338325822,7.103632178073738
3.0428464696610242,1.5890173530418106,4.267823760655018,0.4579048671010157,-2.0841263528538096,7.178375693719668
3.0587366431914425,1.5681760895132726,4.272402809326028,0.5296886240382124,-1.9456160731587766,7.242774027508133
3.074418404086575,1.5487199287816849,4.27769969556641,0.6021163643132937,-1.7995065934431715,7.296800721220161
3.0899056033743917,1.5307248628472532,4.283720859209543,0.6750843715254954,-1.6455042730910452,7.340447516643349
3.105212852002864,1.5142698201163427,4.2904717029247985,0.7484888466919288,-1.483358226228058,7.373723418680121
3.1203555502040277,1.4994362378540622,4.297956591391718,0.8222260808787301,-1.3128586746025313,7.396652822674046
3.1353499125825683,1.4863076511080369,4.306178852200505,0.8961926091054705,-1.133835224421496,7.409272796877274
3.1502129890936486,1.4749692988638219,4.31514077829156,0.9702853370742432,-0.9461551319301035,7.411629615038371
3.1649626820822867,1.4655077475445208,4.3248436316623025,1.0444016332246269,-0.7497216230318229,7.4037746339313815
3.1796177595577317,1.4580105313142027,4.335287647994549,1.1184393795639407,-0.5444723295155416,7.385759606829305
3.194197864870874,1.4525658080190473,4.3464720417901885,1.1922969756322337,-0.3303778990527341,7.357631517259208
3.2087235229510647,1.44926202902852,4.358395011546511,1.2658732908048258,-0.10744082871795456,7.319427008843942
3.2232161432413498,1.4481876207413404,4.371053744454559,1.3390675608932652,0.12430543694265113,7.271166477695258
3.237698019448763,1.449430675110767,4.384444420063492,1.4117792256702177,0.36479711167248546,7.21284788472025
3.2521923261998706,1.4530786462274918,4.3985622123201935,1.4839077045174203,0.6139403550080436,7.144440337290478
3.2667231126621457,1.4592180497775722,4.413401289365368,1.555352107890325,0.8716112287117997,7.065877483799799
3.2813152931599214,1.4679341620646902,4.428954810444271,1.6260108827283228,1.1376553181171203,6.9770507613081145
3.2959946347805684,1.4793107152458613,4.445214919271554,1.695781390341404,1.4118870226552687,6.877802536125732
3.310787741933027,1.493429585472414,4.462172733174968,1.7645594157026614,1.6940885277647546,6.767919180017362
3.325722037787751,1.5103704707500616,4.479818327331994,1.832238607502835,1.984008478269784,6.647124130681588
3.3408257424952517,1.5302105555327594,4.498140713407023,1.8987098488096508,2.2813603816013686,6.515070994111537
3.3561278480505794,1.553024159348773,4.5171278118951195,1.963860558750766,2.585820778458064,6.371336758054501
3.3716580896440673,1.5788823671333536,4.536766417482627,2.027573926331311,2.8970272292480965,6.215415199654023
3.387446913315401,1.6078526394258346,4.557042156745941,2.0897280783278513,3.2145761775102133,6.0467105860007955
3.403525439709659,1.6399984012009368,4.577939437529219,2.1501951841878593,3.5380207670271853,5.864531783210762
3.4199254237216685,1.6753786088712086,4.599441389371098,2.208840502019967,3.8668687079944117,5.668086907217849
3.4366792098103804,1.7140472959511528,4.621529794391297,2.265521371092145,4.200580309741254,5.4564786670868335
3.453819682769892,1.7560530990485654,4.644185008102219,2.3200861577630136,4.538566823331079,5.228700568611688
3.4713802137603778,1.8014387672818761,4.6673858696798485,2.3723731634491303,4.880189266915798,4.983634161439441
3.4893946014331965,1.8502406599510342,4.69110960131434,2.422209505063525,5.224757939818099,4.720047525952826
3.5078970080327068,1.902488239349215,4.7153316963649745,2.469409980323053,5.571532867558915,4.436595205432575
3.5269218904261987,1.9582035680248042,4.740025796168205,2.5137759323773787,5.919725458793126,4.131819793088955
3.5465039261064466,2.0174008226127356,4.765163555491979,2.555094130308268,6.268501695454883,3.80415538054376
3.566677934332574,2.0800858395672845,4.7907144967950615,2.593135684113706,6.616987218165045,3.4519330620079813
3.5874787927282465,2.146255711748935,4.8166458536361985,2.6276550147337856,6.964274708662923,3.073388664068034
3.608941349845736,2.2158984588355644,4.842922403783536,2.658388901374466,7.3094340079789815,2.666672831579103
3.631100334434092,2.2889927989153542,4.869506292797281,2.685055629690257,7.6515254413224065,2.2298635422063597
3.6539902624232456,2.365508053328578,4.896356849094183,2.7073542651123206,7.989616846110891,1.7609810419071772
3.6776453429565312,2.445404221789687,4.923430391745306,2.724964075531392,8.32280481604326,1.2580050872336594
3.702099385174428,2.5286322699501196,4.95068003250062,2.7375441264037286,8.650240679503485,0.7188942439785264
3.727385707873929,2.6151346767451544,4.978055473764657,2.7447330688435136,8.971161723039646,0.1416068220348084
3.753537054641381,2.704846293975551,5.0055028044530925,2.7461491370638615,9.284928148826046,-0.4758771791113221
3.7805855175811365,2.7976955754638113,5.0329642958237315,2.7413903652727485,9.591066218292934,-1.135533982178922
3.808562473335775,2.8936062376467406,5.060378199476459,2.730035025450959,9.889317982935284,-1.839274947316955
3.837498535712242,2.9924994174760933,5.087678549730969,2.7116422759777894,10.179697939401375,-2.5889279469160527
3.867423529887003,3.094296396870107,5.114794972490746,2.685752996508629,10.46255687239981,-3.3862229897536684
3.898366493855704,3.198921965594105,5.141652502455833,2.6518907666110922,10.738653070023021,-4.232784227330169
3.9303557135116454,3.3063084962943354,5.168171410121944,2.6095629243377907,11.00923101649392,-5.130130805863439
3.9634187984745886,3.416400806459275,5.194267039365322,2.5582616162791565,11.276107590588381,-6.079689312204358
3.997582806539181,3.5291618823651585,5.2198496555281135,2.4974647231571128,11.541765722979674,-7.0828207511509005
4.032874425362833,3.644579539594955,5.244824302759684,2.426636515645604,11.809455380711304,-8.14086501060101
4.069320220758782,3.7626740934020684,5.2690906679161404,2.3452278655395937,12.083301618702649,-9.25520550585059
4.1069469616928025,3.883507109589095,5.292542946571537,2.252675810481088,12.368419193375773,-10.427355967618533
4.145782032788693,4.007191301522853,5.315069704676348,2.1484022508049025,12.671032727099407,-11.65906986653497
4.185853945803922,4.133901628793847,5.336553727184397,2.031811552139553,12.998600373009305,-12.952470286644834
4.227192962091861,4.26388763252394,5.356871842705792,1.9022868492731047,13.359936867708296,-14.310193401040278
4.2698318384171,4.397487001201023,5.375894711198523,1.759184915262702,13.765327905800552,-15.735530763288825
4.3138067084291105,4.535140280259029,5.39348656035115,1.6018296076298137,14.226620404229331,-17.232542194138862
4.359158111231701,4.677406484301322,5.409504856427448,1.4295041856884252,14.757259802421734,-18.806088325269943
4.405932176074714,4.824979082325539,5.423799898284332,1.2414433024357256,15.372221499051891,-20.4616933764672
4.454181966897969,4.978701297316058,5.4362143313086895,1.0368263686710537,16.087741026332314,-22.205083445520614
4.5039689798711295,5.139578707579381,5.4465825949954,0.8147755342158476,16.920673350697303,-24.041134900706286
4.555364766946924,5.308785441086354,5.454730350337559,0.5743641852087847,17.887183852928263,-25.97178089354728
4.608452621357787,5.487657279615637,5.460473992189646,0.31464637627331193,19.0002575043648,-27.99211391610419
4.663329194153944,5.677659854659285,5.4636204559523796,0.03472523711226999,20.26515896275025,-30.08342158372921
4.7201057927005365,5.880311444286788,5.463967708323502,-0.2661089787250221,21.67142921191583,-32.20112942333135
4.778908907143404,6.097025736405946,5.461306618536252,-0.5881202729583357,23.179252453017487,-34.25459592623175
4.8398791645074635,6.328818260936122,5.455425415806669,-0.9306662322206531,24.697273211284173,-36.074726075924666
4.903167347116825,6.5757909930489635,5.446118753484463,-1.2914134929799,26.049072821299006,-37.3657417846712
4.968925257047315,6.836281721261954,5.433204618554663,-1.665070910826612,26.929120100893968,-37.642919329076115
5.037288074259934,7.105572922270893,5.416553909446398,-2.041500104117373,26.861840349023378,-36.17689262803912
5.108343803482644,7.374191325761127,5.396138908405224,-2.403269030397764,25.207445645625512,-32.008442530031104
5.1820857167402545,7.6262657822173825,5.372106218101246,-2.723353455698075,21.301562015202226,-24.159710051661623
5.258348374562428,7.839281402369405,5.344872683544265,-2.9649505562146916,14.815836666097434,-12.166768542069159
5.336741188586122,7.987439769030379,5.315223177982118,-3.0866182416353833,6.251305012869252,3.1954415202648523
5.416615586276426,8.049952819159072,5.284356995565765,-3.054663826432735,-2.882208167829079,19.642864671474886
5.497115114468016,8.021130737480782,5.253810357301438,-2.858235179717986,-10.674387696461036,34.25825587953324
5.577326421842824,7.914386860516172,5.225228005504258,-2.5156526209226535,-15.872317667994386,45.039539371378375
5.656470290447985,7.755663683836228,5.2000714792950316,-2.06525722720887,-18.38170135094673,51.66712881108742
5.734026927286347,7.57184667032676,5.179418907022943,-1.5485859390979955,-18.897112115783717,55.00714370013801
5.809745393989615,7.382875549168923,5.163933047631963,-0.9985145020966154,-18.28169674858137,56.22256161235196
5.883574149481304,7.200058581683109,5.153947902610997,-0.4362888859730958,-17.21552307687889,56.24954912772942
5.955574735298135,7.02790335091432,5.149585013751266,0.12620660530419847,-16.129714671577034,55.68312690888151
6.025853768807278,6.86660620419855,5.150847079804308,0.6830378743930136,-15.263034708137162,54.84656469146585
6.094519830849263,6.713975857117178,5.157677458548238,1.2315035213076722,-14.733471169410441,53.89006556257721
6.161659589420435,6.566641145423073,5.169992493761315,1.7704041769334444,-14.59038014051218,52.86644518026519
6.227326000874666,6.420737344017952,5.18769653553065,2.299068628736096,-14.845706574175782,51.779258268261735
6.291533374314846,6.272280278276194,5.210687221818011,2.8168612114187135,-15.49078676052071,50.611196936233284
6.354256177097608,6.1173724106709875,5.238855833932198,3.3229731807810463,-16.504725781326822,49.34046518523792
6.415429901204318,5.9523251528577195,5.272085565740008,3.8163778326334254,-17.858332114780772,47.95025578811754
6.474953152732895,5.773741831709912,5.310249344066342,4.295880390514601,-19.515974515687486,46.43427838626217
6.5326905710499945,5.578582086553037,5.353208147971488,4.760223174377222,-21.436700858600293,44.79990474558343
6.588476391915525,5.3642150779670335,5.40081037971526,5.208222221833056,-23.575350848158195,43.06972111182553
6.642118542695195,5.128461569485451,5.45289260193359,5.638919432951312,-25.884028894845706,41.28188361557493
6.6934031583900495,4.869621280536994,5.509281796263103,6.051738269107061,-28.314066340493845,39.48950098486164
6.74209937119542,4.586480617132056,5.569799178954174,6.4466332789556775,-30.818430874093455,37.75921661316117
6.7879641773667405,4.278296308391121,5.634265511743731,6.824225445087289,-33.35440326881624,36.16915948185656
6.830747140450652,3.9447522757029585,5.7025077661946035,7.1859170399058545,-35.88621846105984,34.80642419976753
6.870194663207681,3.58589009109236,5.774366936593662,7.53398128190353,-38.3872380429143,33.76416617310017
6.906053564118605,3.202017710663217,5.8497067494126975,7.871622943634532,-40.84104334001328,33.138181297122166
6.938073741225237,2.793607277263084,5.928422978849043,8.203004756605754,-43.24052777950422,33.022356940053605
6.966009813997868,2.361201999468042,6.0104530264151,8.53322832600629,-45.583459571631245,33.501413475654104
6.989621833992548,1.9053674037517294,6.095785309675163,8.868242460762831,-47.86178237300934,34.63750783357482
7.008675508030065,1.426749580021636,6.184467734282792,9.21461753909858,-50.03963665886217,36.443875765296454
7.022943003830282,0.9263532134330144,6.276613909673777,9.579056296751544,-52.0111189685039,38.83286922244017
7.032206535964612,0.40624202374797536,6.372404472641293,9.967384988975946,-53.52318888984155,41.51736822632127
7.0362689562020915,-0.1289898651504402,6.472078322531052,10.382558671239158,-54.04583409555888,43.83863531542205
7.034979057550587,-0.6694482061060291,6.5759039092434435,10.820945024393378,-52.588819470065545,44.51465257387618
7.028284575489527,-1.1953364008066845,6.684113359487378,11.26609155013214,-47.55548806795099,41.4240521082624
7.016331211481461,-1.6708912814861945,6.7967742749886995,11.680332071214764,-36.97113471843587,31.8768682296192
6.999622298666599,-2.040602628670553,6.913577595700847,11.999100753510955,-19.70033494096182,14.208581015429878
6.979216272379893,-2.2376059780801714,7.033568603235956,12.141186563665254,2.378498109307306,-9.329795181184807
6.956840212599091,-2.2138209969870983,7.154980468872608,12.047888611853406,23.726644123735934,-31.72891720732534
6.93470200262922,-1.976554555749739,7.275459354991143,11.730599439780152,38.740219021542835,-46.023634277544595
6.914936457071723,-1.5891523655343107,7.392765349388944,11.270363097004706,45.9446453513605,-50.735963680776706
6.89904493341638,-1.1297059120207056,7.505468980358991,10.76300346019694,47.45258027908539,-48.92958222401574
6.887747874296172,-0.6551801092298517,7.6130990149609605,10.273707637956782,45.97936675284268,-44.2066442133517
6.881196073203874,-0.19538644170142488,7.715836091340528,9.831641195823265,43.33496847910657,-38.83195241130162
6.87924220878686,0.23796324308964084,7.814152503298761,9.443321671710248,40.42137447568138,-33.84366086049835
6.881621841217757,0.6421769878464547,7.908585720015863,9.104885063105264,37.60560172348215,-29.596155488051007
6.888043611096221,1.0182330050812762,7.999634570646916,8.808923508224755,34.99927714271769,-26.13855984330773
6.898225941147034,1.3682257765084531,8.087723805729164,8.547537909791677,32.60697007790851,-23.405000194971755
6.911908198912118,1.6942954772875383,8.17319918482708,8.31348790784196,30.394951332075753,-21.297076135469215
6.9288511536849935,1.9982449906082957,8.2563340639055,8.100517146487269,28.32080143578912,-19.715805839790495
6.948833603591076,2.281453004966187,8.337339235370372,7.903359088089363,26.345285076848462,-18.572039141478896
6.9716481336407385,2.5449058557346715,8.416372826251266,7.717638696674574,24.43651431207919,-17.788370204918674
6.997097192198085,2.7892709988554634,8.493549213218012,7.539754994625388,22.570857983557424,-17.29808007441392
7.02498990218664,3.0149795786910376,8.568946763164266,7.366774193881248,20.732527396469088,-17.04334895931609
7.055139697973551,3.2223048526557285,8.64261450510308,7.196340704288088,18.91265574846414,-16.973579561095562
7.087362746500108,3.41143141014037,8.71457791214596,7.026604908677132,17.108209369288627,-17.044091276578932
7.121477060601511,3.582513503833256,8.784843961232733,6.856163995911342,15.320868388070371,-17.21521092199771
7.1573021956398435,3.73572218771396,8.853405601191847,6.684011886691366,13.555935275727547,-17.451698054533455
7.194659417516983,3.8712815404712355,8.92024572005876,6.509494906146031,11.82130155115946,-17.72241721510478
7.233372232921695,3.98949455598283,8.985340669120221,6.332270733994983,10.126494408554251,-18.000169813913004
7.2732671784815235,4.090759500068373,9.048663376460171,6.152269035855853,8.48182229642988,-18.26160983241292
7.314174773482208,4.175577723032672,9.110186066818729,5.969652937531723,6.897635886164332,-18.487183360411443
7.355930550712534,4.244554081894315,9.169882596194046,5.7847811039276085,5.3837166198921516,-18.661048945881756
7.398376091531477,4.298391248093237,9.227730407233322,5.598170614468791,3.948799166722123,-18.770951912297104
7.4413600040124095,4.337879239760459,9.28371211337801,5.41046109534582,2.6002274482081082,-18.808039974434614
7.4847387964100145,4.363881514242539,9.337816724331468,5.2223806956014736,1.3437373966630088,-18.766618911249587
7.52837761155244,4.377318888209169,9.390040531287482,5.034714506488978,0.18335410840448554,-18.643855405186788
7.572150800434532,4.379152429293214,9.440387676352373,4.84827595243711,-0.878612927433309,-18.43943947578277
7.615942324727464,4.370366300018881,9.488870435876743,4.663881557679282,-1.8414951085853313,-18.155221558786877
