th1 (rad),w1 (rad/s),th2 (rad),w2 (rad/s),a1 (rad/s^2),a2 (rad/s^2)
0.3983752415568464,2.991602488723526,2.8333850275345913,-0.45121171894786977,-9.955282371447206,-16.355159547706283
0.42829126644408166,2.8920496650090537,2.8288729103451127,-0.6147633144249326,-9.806466122967134,-15.895977443154148
0.4572117630941722,2.7939850037793823,2.8227252772008633,-0.7737230888564741,-9.611756212956454,-15.400038470921936
0.48515161313196603,2.6978674416498176,2.8149880463122985,-0.9277234735656935,-9.377922626112266,-14.878769722484227
0.5121302875484642,2.604088215388695,2.8057108115766414,-1.0765111707905357,-9.111514711170146,-14.342872606613355
0.5381711697023512,2.5129730682769935,2.794945699868736,-1.2199398968566693,-8.81868187211121,-13.802103606251709
0.5633009003851212,2.4247862495558814,2.7827463009001696,-1.3579609329191864,-8.505041975454459,-13.265136208605178
0.5875487628806799,2.3397358298013367,2.7691666915709776,-1.490612295005238,-8.175595434536733,-12.73949625950526
0.6109461211786933,2.2579798754559692,2.7542605686209254,-1.6180072576002906,-7.834680035463882,-12.231559352220831
0.633525919933253,2.1796330751013304,2.7380804960449225,-1.7403228511224988,-7.485959839307291,-11.74659714922713
0.6553222506842663,2.1047734767082575,2.7206772675336977,-1.85778882261477,-7.13244079726211,-11.288859410512002
0.6763699854513489,2.0334490687356364,2.70209937930755,-1.9706774167198902,-6.7765058263011015,-10.861679523393866
0.6967044761387052,1.9656840104726254,2.682392605140351,-2.0792942119538287,-6.419962760943823,-10.467593053514777
0.7163613162434315,1.901484382863187,2.6615996630208127,-2.1839701424889766,-6.064099587673891,-10.108460881454883
0.7353761600720633,1.8408433869864482,2.639759961595923,-2.2850547513035253,-5.709742490722873,-9.785590561210745
0.7537845939419278,1.7837459620792195,2.6169094140828877,-2.382910656915633,-5.357313352552879,-9.499851437773165
0.77162205356272,1.7301728285536908,2.5930803075137314,-2.4779091712933647,-5.00688437180073,-9.251780677677964
0.7889237818482568,1.6801039848356836,2.5683012158007976,-2.5704269780701443,-4.658228341488933,-9.041678650493466
0.8057248216966136,1.6335217014207943,2.542596946020096,-2.660843764575079,-4.310863859965703,-8.869693047160379
0.8220600387108216,1.5904130628211373,2.5159885083743454,-2.749540695046683,-3.9640953386833746,-8.735891754996372
0.837964169339033,1.5507721094343034,2.4884931014238787,-2.8368996125966466,-3.617048152354654,-8.640324861285874
0.853471890433376,1.5146016279107568,2.460124105297912,-2.923302861209505,-3.268699686037783,-8.583076258295351
0.8686179067124836,1.481914631050379,2.430891076685817,-3.0091336237924584,-2.9179074153471802,-8.564305192313213
0.8834370530229874,1.4527355568969071,2.4007997404478925,-3.0947766757155906,-2.5634355623753544,-8.584277740296987
0.8979644085919565,1.4271012012731537,2.3698519736907366,-3.1806194531185605,-2.2039823624295907,-8.64338758814018
0.912235420604688,1.4050613776488579,2.3380457791595513,-3.267053328999962,-1.838210630587396,-8.742164571224643
0.9262860343811765,1.3866792713429839,2.3053752458695516,-3.3544749747122085,-1.4647852285468559,-8.881268126838746
0.9401528270946063,1.3720314190575154,2.2718304961224294,-3.443287655980596,-1.0824223280955236,-9.061460952121612
0.9538731412851815,1.3612071957765601,2.2373976195626235,-3.533902265501812,-0.6899572174070283,-9.28355554407818
0.9674852132429471,1.3543076236024898,2.202058596907605,-3.626737820942594,-0.2864400267489925,-9.548322614999828
0.981028289478972,1.3514432233349998,2.165791218698179,-3.7222210470925923,0.12872754315627205,-9.856345215001333
0.994542721712322,1.3527304987665625,2.1285690082272533,-3.8207844992426057,0.5555962556720389,-10.207795225394397
1.0080700266999876,1.3582864613232828,2.090361163234827,-3.9228624514965498,0.9933888898049993,-10.602099095808798
1.0216528913132203,1.3682203502213328,2.0511325387198616,-4.028883442454638,1.440100821672739,-11.037446695953978
1.0353350948154336,1.3826213584380602,2.0108437042953153,-4.1392579094141775,1.8919355982539274,-11.510080696430359
1.0491613083998141,1.4015407144205996,1.9694511252011735,-4.254358716378481,2.3425163677517142,-12.01328481652069
1.0631767155440202,1.4249658780981167,1.9269075380373888,-4.374491564543688,2.781802127584001,-12.535971028641853
1.0774263743250012,1.4527838993739568,1.883162622391952,-4.499851274830107,3.1946339440330354,-13.06075742110772
1.0919542133187408,1.4847302388142871,1.838164109643651,-4.630458849041184,3.558855458211029,-13.561449752171209
1.1068015157068836,1.5203187933963973,1.791859521153239,-4.766073346562896,3.8430227850201875,-13.999929561754152
1.1220047036408476,1.558749021246599,1.7441987876876102,-4.906072642180438,4.0038905257669475,-14.322677283567415
1.1375921938533136,1.5987879265042686,1.6951380612658058,-5.049299415016112,3.9842044791646516,-14.457618761514393
1.1535800731183563,1.6386299712959151,1.6446450671156447,-5.193875602631255,3.7119206739285393,-14.312780426969535
1.1699663728313154,1.6757491780352005,1.5927063110893322,-5.33700340690095,3.102799126084372,-13.77936986301232
1.1867238646116673,1.7067771692960443,1.5393362770203227,-5.474797105531073,2.069118710680497,-12.743001208220004
1.2037916363046277,1.7274683564028492,1.484588305965012,-5.602227117613273,0.5372119817322297,-11.106749062916139
1.2210663198686562,1.7328404762201715,1.4285660347888793,-5.7132946082424345,-1.5258273761623897,-8.8265510634796
1.238394724630858,1.7175822024585476,1.371433088706455,-5.80156011887723,-4.081814815226605,-5.951462883539936
1.2555705466554434,1.6767640543062816,1.3134174875176827,-5.861074747712629,-7.001157404071137,-2.650294339484932
1.2723381871985062,1.6067524802655702,1.2548067400405565,-5.887577691107478,-10.069967319720641,0.7988822861753541
1.2884057120011618,1.5060528070683636,1.1959309631294817,-5.879588868245724,-13.032871291309178,4.067179237399606
1.3034662400718455,1.375724094155272,1.1371350744470243,-5.838917075871728,-15.6581030099965,6.862507310147063
1.3172234810133983,1.219143064055307,1.0787459036883071,-5.770292002770257,-17.79389985448824,9.004024324907892
1.3294149116539513,1.0412040655104244,1.0210429836606045,-5.680251759521179,-19.39004641701881,10.448428897694763
1.3398269523090556,0.8473036013402364,0.9642404660653927,-5.575767470544231,-20.48204856190571,11.265807917484684
1.348299988322458,0.6424831157211793,0.9084827913599504,-5.463109391369384,-21.155650550022006,11.590007723150977
1.3547248194796697,0.43092661022095924,0.8538516974462566,-5.347209314137874,-21.512102469357757,11.571398957458598
1.3590340855818792,0.21580558552738166,0.8003796043048779,-5.231495324563288,-21.64504850974383,11.346335840810474
1.361192141437153,-0.0006448995700566451,0.748064651059245,-5.118031966155184,-21.629936694154456,11.02392550147428
1.3611856924414525,-0.2169442665116012,0.6968843313976932,-5.007792711140441,-21.52208325726343,10.68442914654427
1.3590162497763365,-0.4321650990842355,0.6468064042862889,-4.900948419674998,-21.359116058775946,10.383305190892441
1.3546945987854941,-0.645756259671995,0.5977969200895389,-4.797115367766074,-21.164864435829305,10.156895009499737
1.348237036188774,-0.857404904030288,0.5498257664118782,-4.695546417671077,-20.953176339875668,10.02774609293366
1.3396629871484713,-1.0669366674290446,0.5028703022351674,-4.59526895674174,-20.731081111588193,10.008856557979525
1.3289936204741808,-1.2742474785449265,0.45691761266775,-4.495180391161945,-20.50120027332992,10.106772865322828
1.3162511456887316,-1.4792594812782256,0.41196580875613054,-4.394112662508717,-20.26350551044413,10.323724415541323
1.3014585508759493,-1.681894536382667,0.36802468213104333,-4.290875418353304,-20.016573528934337,10.659033992669528
1.2846396055121225,-1.8820602716720103,0.3251159279475103,-4.184285078426608,-19.75847664236246,11.110019154374578
1.2658190027954024,-2.079645038095635,0.28327307716324424,-4.073184886882863,-19.48741821162671,11.672553805529647
1.245022552414446,-2.274519220211902,0.2425412282944156,-3.956459348827566,-19.202191522982645,12.341414721054237
1.222277360212327,-2.4665411354417284,0.20297663480613992,-3.833045201617024,-18.902515491160308,13.110501899336546
1.1976119488579096,-2.6555662903533315,0.16464618278996968,-3.7019401826236584,-18.5892817572674,13.972994819026269
1.1710562859543763,-2.8414591079260054,0.1276267809637331,-3.5622102344333957,-18.26473452500209,14.921487191207753
1.1426416948751161,-3.024106453176026,0.09200467861939912,-3.4129953625213183,-17.932595612736343,15.948128519144174
1.1124006303433558,-3.2034324093033897,0.05787472499418594,-3.2535140773298767,-17.598141518769364,17.04478983805505
1.080366306250322,-3.3794138244910834,0.025339584220887168,-3.083066178949326,-17.268235792448202,18.203261940142657
1.0465721680054112,-3.5520961824155655,-0.005491077568606093,-2.9010335595478995,-16.951317782345605,19.415486044445696
1.0110512061812555,-3.7216093602390217,-0.03450141316408509,-2.7068786991034424,-16.657347011855297,20.673808253608296
0.9738351125788653,-3.8881828303575747,-0.06157020015511951,-2.5001406165673594,-16.397699999310063,21.97123920106963
0.9349532842752896,-4.052159830350675,-0.08657160632079311,-2.280428224556663,-16.185011967136475,23.30168764281688
0.8944316859717828,-4.21400995002204,-0.10937588856635974,-2.0474113481284943,-16.03294767374436,24.660119254147787
0.8522915864715624,-4.374339426759483,-0.12985000204764469,-1.8008101555870164,-15.955870693980915,26.04256608129451
0.8085481922039677,-4.533898133699292,-0.14785810360351484,-1.5403844947740712,-15.968354457428763,27.445872277257198
0.7632092108669748,-4.6935816782735795,-0.16326194855125556,-1.2659257720014994,-16.0844343886569,28.866998751136247
0.716273394084239,-4.8544260221601485,-0.17592120627127056,-0.9772557844901368,-16.31642814920963,30.301608932830263
0.6677291338626374,-5.017590303652245,-0.18569376411617192,-0.6742396951618341,-16.673035104151346,31.741499230281438
0.617553230826115,-5.184320654693758,-0.19243616106779027,-0.35682470285901974,-17.156247087687927,33.17019433503798
0.5657100242791775,-5.355883125570638,-0.19600440809638048,-0.025122759508639902,-17.75634199405532,34.555675755391334
0.5121511930234711,-5.533446545511191,-0.19625563569146687,0.32043399804527345,-18.443895341285334,35.838764531205214
0.4568167275683592,-5.717885498924045,-0.19305129571101412,0.6788216433573255,-19.15742922635817,36.91528112998436
0.39963787257911876,-5.9094597911876265,-0.18626307927744087,1.0479744546571692,-19.78537684729152,37.61027186837149
0.3405432746672425,-6.1073135596605415,-0.17578333473086918,1.4240771733408841,-20.142431135571567,37.64469535385541
0.27947013907063706,-6.308737871016257,-0.16154256299746034,1.8005241268794383,-19.945136302632758,36.60194584012684
0.2163827603604745,-6.508189234042585,-0.14353732172866596,2.1665435852807065,-18.80296769341908,33.917952533332105
0.15130086802004863,-6.696218910976776,-0.1218718858758589,2.5057231106140274,-16.260344232928748,28.94591043114738
0.08433867891028088,-6.8588223533060635,-0.09681465476971862,2.795182214925501,-11.939808104164543,21.167276194350467
0.015750455377220238,-6.978220434347709,-0.06886283262046361,3.006854976869006,-5.803897753034351,10.572833186686502
-0.05403174896625686,-7.036259411878053,-0.038794282851773554,3.112583308735871,1.5799874122091189,-1.9540770808924932
-0.12439434308503738,-7.020459537755961,-0.007668449764414845,3.093042537926946,9.049576138792489,-14.652842675374572
-0.19459893846259702,-6.929963776368036,0.02326197561485462,2.9465141111732005,15.308725712424737,-25.554875348939557
-0.2638985762262774,-6.776876519243789,0.05272711672658663,2.690965357683805,19.551427857041006,-33.395658813285756
-0.3316673414187153,-6.5813622406733785,0.07963677030342468,2.3570087695509474,21.719202575942322,-38.00472737493855
-0.39748096382544906,-6.364170214913956,0.10320685799893416,1.976961495801562,22.272642573350748,-39.990820531849984
-0.4611226659745886,-6.141443789180448,0.12297647295694977,1.577053290483062,21.81303786316584,-40.1979219293639
-0.5225371038663931,-5.92331341054879,0.1387470058617804,1.1750740711894232,20.843484863854833,-39.35230217309435
-0.581770237971881,-5.714878561910242,0.15049774657367462,0.7815510494584796,19.702643620386837,-37.956379409826795
-0.6389190235909834,-5.517852125706373,0.1583132570682594,0.4019872553602117,18.5881597486688,-36.31467533129759
-0.6940975448480471,-5.331970528219685,0.16233312962186153,0.03884050204723577,17.601621494852633,-34.59443509529022
-0.747417250130244,-5.155954313271159,0.16272153464233388,-0.30710384890566644,16.786566231853552,-32.87881215156392
-0.7989767932629556,-4.988088650952623,0.15965049615327723,-0.6358919704213056,16.154003603666652,-31.203458723285724
-0.8488576797724818,-4.826548614915956,0.15329157644906416,-0.9479265576541629,15.697789809658438,-29.579077534802536
-0.8971231659216414,-4.669570716819372,0.14381231087252253,-1.2437173330021882,15.403334809844015,-28.00450505670998
-0.9438188730898351,-4.515537368720932,0.13137513754250063,-1.523762383569288,15.252338092867161,-26.473995239500066
-0.9889742467770445,-4.363013987792261,0.11613751370680775,-1.7885023359642886,15.225286860922147,-24.981113471333238
-1.032604386654967,-4.210761119183039,0.09825249034716486,-2.038313470677621,15.302742337339314,-23.520694448870564
-1.0747119978467974,-4.057733695809646,0.07786935564038866,-2.2735204151663266,15.465993521523684,-22.08970634391019
-1.1152893348048938,-3.9030737605944092,0.05513415148872539,-2.4944174786054285,15.697394962735508,-20.687501064296363
-1.1543200724108378,-3.746099810967054,0.030189976702671106,-2.701292489248392,15.980555664996904,-19.315723329360985
-1.1917810705205083,-3.586294254317085,0.003177051810187185,-2.894449722542002,16.30046289167802,-17.97803533954258
-1.2276440130636792,-3.4232896254003045,-0.025767445415232838,-3.074230075937428,16.643578961524355,-16.67974947376001
-1.2618769093176823,-3.2568538357850607,-0.05650974617460712,-3.241027570675028,16.99792475297912,-15.427425653428678
-1.294445447675533,-3.0868745882552693,-0.08892002188135739,-3.3953018272093147,17.353151323795327,-14.22846970240018
-1.3253141935580857,-2.913343075017316,-0.12287304015345055,-3.5375865242333164,17.700595599237158,-13.090756929201472
-1.3544476243082588,-2.7363371190249444,-0.1582489053957837,-3.668494093525331,18.03331450271289,-12.022297278919435
-1.3818109954985083,-2.5560039739978153,-0.19493384633103703,-3.7887170663145255,18.346092435038354,-11.030952621691549
-1.4073710352384865,-2.372543049647432,-0.23282101699418228,-3.899026592531441,18.635418558268015,-10.12421197133217
-1.4310964657349607,-2.1861888640647518,-0.2718112829194967,-4.000268712244763,18.89943218234647,-9.309026125761187
-1.4529583543756082,-1.9971945422412871,-0.31181397004194433,-4.093358973502375,19.137836170604324,-8.59169912736604
-1.472930299798021,-1.805816180535244,-0.3527475597769681,-4.179275964776036,19.351779271915593,-7.977829887173842
-1.4909884616033733,-1.6122983878160881,-0.39454031942472845,-4.259054263647774,19.543708307110165,-7.47229310570145
-1.5071114454815342,-1.4168613047449865,-0.4371308620612062,-4.333777194704788,19.7171898431762,-7.07924393894725
-1.521280058528984,-1.2196894063132244,-0.4804686340082541,-4.40456963409426,19.876697987704297,-6.802125178505443
-1.5334769525921164,-1.0209224264361814,-0.5245143303491967,-4.472590885879314,20.027359716270094,-6.643648226681911
-1.5436861768564782,-0.8206488292734804,-0.5692402392079898,-4.539027368146133,20.174640998700465,-6.605708652778782
-1.551892665149213,-0.6189024192864757,-0.6146305128894511,-4.6050844546739205,20.32394493644376,-6.689181948639614
-1.558081689342078,-0.4156629699220381,-0.6606813574361904,-4.671976274160317,20.48007588483538,-6.893523104777763
-1.5622383190412983,-0.2108622110736843,-0.7074011201777936,-4.740911505208095,20.64649967406013,-7.216062357209833
-1.5643469411520352,-0.004397214333082988,-0.7548102352298744,-4.813072128780193,20.82429853522068,-7.6508469543686495
-1.564390913295366,0.20384577101912382,-0.8029409565176764,-4.889580598323879,21.010681140615876,-8.18682575522517
-1.5623524555851747,0.4139525824252826,-0.8518367625009152,-4.9714488558761305,21.196869921486048,-8.805118344383725
-1.5582129297609217,0.625921281640143,-0.9015512510596765,-5.059500039319968,21.365169663601527,-9.475080208526432
-1.5519537169445203,0.8395729782761583,-0.9521462514528761,-5.154250841405232,21.485071604287533,-10.148936635941219
-1.5435579871617588,1.0544236943190337,-1.0036887598669284,-5.255740207764644,21.50846557672196,-10.755048742878552
-1.5330137502185686,1.2695083500862534,-1.0562461619445749,-5.363290695193429,21.36459500358908,-11.190641605532218
-1.520318666717706,1.4831543001221443,-1.1098790688965092,-5.475197111248751,20.95653696428729,-11.316408642995574
-1.5054871237164846,1.6927196697650173,-1.1646310400089968,-5.588361197678707,20.162877017591576,-10.95803799035412
-1.4885599270188345,1.8943484399409332,-1.220514651985784,-5.697941577582248,18.850458838075532,-9.922829962365869
-1.4696164426194251,2.0828530283216886,-1.2774940677616065,-5.797169877205906,16.904716897726942,-8.040567581378612
-1.4487879123362082,2.251900197298958,-1.3354657665336656,-5.8775755530196925,14.279146304133977,-5.231106507594779
-1.4262689103632187,2.394691660340298,-1.3942415220638624,-5.92988661809564,11.051153550907742,-1.5814618410279115
-1.4023219937598157,2.5052031958493752,-1.4535403882448188,-5.945701236505919,7.452285819110599,2.6115025205934335
-1.377269961801322,2.5797260540404814,-1.512997400609878,-5.919586211299985,3.8364950593646623,6.8829171251090076
-1.3514727012609171,2.618091004634128,-1.5721932627228778,-5.8507570400488955,0.5817402164622321,10.733016093983153
-1.3252917912145759,2.6239084067987504,-1.6307008331233668,-5.743426879109064,-2.0271631617990327,13.785948744128838
-1.2990527071465883,2.60363677518076,-1.6881351019144575,-5.605567391667776,-3.8670163250130876,15.882112434549015
-1.2730163393947806,2.564966611930629,-1.7441907758311352,-5.446746267322286,-4.968005556842783,17.0661678789093
-1.2473666732754745,2.515286556362201,-1.7986582385043581,-5.276084588533193,-5.455451430864275,17.507736321141877
-1.2222138077118525,2.460732042053558,-1.85141908438969,-5.101007225321774,-5.486136711596182,17.415672588900243
-1.197606487291317,2.405870674937596,-1.9024291566429077,-4.9268504994327715,-5.20566797883558,16.9814888757004
-1.173547780541941,2.3538139951492405,-1.9516976616372355,-4.757035610675768,-4.7299551564966675,16.355554929938823
-1.1500096405904485,2.3065144435842737,-1.9992680177439932,-4.59348006137638,-4.142732584093151,15.644752120608251
-1.1269444961546058,2.265087117743342,-2.045202818357757,-4.437032540170297,-3.5004529709211254,14.919729031690249
-1.1042936249771724,2.2300825880341306,-2.08957314375946,-4.287835249853395,-2.8390705433684076,14.224387953404227
-1.0819927990968312,2.2016918826004463,-2.132451496257994,-4.1455913703193525,-2.180197711371837,13.584302357103311
-1.0599758802708268,2.179889905486728,-2.1739074099611875,-4.009748346748319,-1.5358718048454958,13.013126934993412
-1.0381769812159596,2.164531187438273,-2.2140048934286707,-3.879617077398385,-0.9119547168498193,12.517096941535891
-1.016531669341577,2.155411640269775,-2.2528010642026546,-3.7544461079830262,-0.3104436742615239,12.098032267316674
-0.9949775529388791,2.1523072035271595,-2.290345525282485,-3.6334657853098595,0.2690049626632031,11.75527464646333
-0.9734544809036075,2.1549972531537915,-2.3266801831355837,-3.515913038845226,0.8280908942927722,11.486901631490044
-0.9519045083720696,2.163278162096719,-2.361839313524036,-3.4010440225303253,1.3692421497718372,11.290464901274675
-0.9302717267511025,2.1769705835944375,-2.395849753749339,-3.288139373517579,1.8952184301992612,11.163421263409914
-0.9085020209151581,2.19592276789643,-2.428731147484515,-3.1765051608834796,2.408860965129561,11.10336687480711
