th1 (rad),w1 (rad/s),th2 (rad),w2 (rad/s),a1 (rad/s^2),a2 (rad/s^2)
6.009335728407441,-1.1351574456077056,4.044966095530739,1.029073392939918,4.172159917356527,10.487159260276679
5.997984153951364,-1.0934358464341403,4.055256829460139,1.1339449855426849,4.037159028307705,10.340143526223844
5.987049795487023,-1.0530642561510632,4.066596279315566,1.2373464208049234,3.887881650671394,10.200241211944965
5.976519152925512,-1.0141854396443493,4.078969743523615,1.339348832924373,3.7248284150708537,10.068588500951826
5.966377298529069,-0.9769371554936407,4.092363231852858,1.4400347179338913,3.5484347094991517,9.946265746043677
5.956607926974132,-0.9414528083986492,4.106763579032197,1.539497375394328,3.3590678318726983,9.834305118633846
5.947193398890145,-0.9078621300799222,4.12215855278614,1.6378404265806665,3.15702470295013,9.733699927918154
5.938114777589346,-0.8762918830504209,4.138536957051947,1.735177425859848,2.942529983226831,9.645415484021985
5.929351858758842,-0.8468665832181527,4.1558887313105455,1.8316315807000678,2.7157344327355712,9.57040139237169
5.920883192926661,-0.8197092388907969,4.174205047117546,1.9273355946237847,2.476713353799983,9.509605183816385
5.912686100537753,-0.7949421053527971,4.193478403063784,2.0224316464619485,2.225464963895187,9.463987204053918
5.904736679484225,-0.7726874557138452,4.213702719528404,2.1170715185024878,1.9619085595550227,9.43453670381215
5.8970098049270865,-0.753068370118295,4.234873434713428,2.211416885540609,1.6858823541770287,9.422289084433897
5.889479121225904,-0.7362095465765247,4.2569876035688345,2.305639776384948,1.3971409051866333,9.428344257346337
5.882117025760138,-0.7222381375246584,4.280044001332684,2.3999232189584117,1.0953520935357979,9.453886063967074
5.8748946443848915,-0.7112846165893004,4.304043233522268,2.4944620795980823,0.780093687500259,9.500202665813589
5.867781798218998,-0.7034836797142978,4.328987854318249,2.589464106256218,0.45084962322347316,9.5687077396839
5.860746961421856,-0.6989751834820631,4.354882495380811,2.685151183653057,0.10700628150659458,9.660962180162898
5.853757209587035,-0.6979051206669972,4.381734007217341,2.781760805454686,-0.25215074351986694,9.778695792156261
5.846778158380364,-0.7004266281021958,4.409551615271888,2.8795477633762485,-0.6274385694492396,9.923828105905294
5.839773892099342,-0.7067010137966881,4.4383470929056505,2.9787860444353016,-1.0197763587137911,10.09848690034118
5.832706881961375,-0.716898777383826,4.468134953350003,3.0797709134387135,-1.430180076133745,10.305022179140456
5.825537894187537,-0.7312005781451635,4.498932662484391,3.182821135230118,-1.8597496523711523,10.546012059577514
5.818225888406086,-0.749798074668875,4.530760873836692,3.288281255825893,-2.3096439993771987,10.824255085820733
5.8107279076593965,-0.772894514662647,4.5636436863949505,3.3965238066841,-2.7810370462976413,11.142740535429448
5.8029989625127705,-0.8007048851256234,4.597608924461792,3.5079512120383947,-3.275044589440463,11.504583861222606
5.794991913661514,-0.8334553310200281,4.632688436582176,3.622997050650621,-3.792606762559274,11.912907783786798
5.786657360351314,-0.8713813986456208,4.6689184070886816,3.742126128488489,-4.334303600476726,12.370639692471595
5.777943546364858,-0.9147244346503881,4.706339668373566,3.865832525413205,-4.9000704801241,12.880181489254818
5.768796302018354,-0.9637251394516291,4.744997993627698,3.9946343403057534,-5.4887648675412075,13.442886926115813
5.759159050623838,-1.0186127881270413,4.784944337030756,4.129063209566912,-6.097514264451325,14.058251593794054
5.748972922742568,-1.0795879307715546,4.826234969126425,4.269645725504852,-6.720746254093186,14.722679963181177
5.7381770434348525,-1.1467953933124864,4.868931426381473,4.4168725251366645,-7.348765283294548,15.42764202723925
5.726709089501727,-1.220283046145432,4.91310015163284,4.571148945409057,-7.965701932844496,16.156974745556656
5.714506259040273,-1.2999400654738769,4.95881164108693,4.732718692864624,-8.546634519235127,16.883040946147826
5.701506858385534,-1.385406410666228,5.006138828015576,4.9015491023261015,-9.053709272470263,17.56148316306606
5.687652794278872,-1.4759435033909307,5.055154319038837,5.077163933956762,-9.431249119898585,18.124517519456216
5.672893359244963,-1.5702559945899166,5.105925958378404,5.258409109151325,-9.600302404717835,18.473322847992783
5.657190799299063,-1.666259018637095,5.158510049469918,5.443142337631253,-9.454090667433249,18.471437850020916
5.640528209112692,-1.7607999253114275,5.21294147284623,5.627856716131462,-8.857624343998884,17.94354493176597
5.622920209859578,-1.8493761687514163,5.269220040007545,5.807292165449121,-7.657264445411592,16.687471747384084
5.604426448172064,-1.9259488132055322,5.327292961662036,5.974166882922963,-5.707880906863946,14.509869095101376
5.5851669600400085,-1.9830276222741716,5.387034630491266,6.119265573873976,-2.922796063062053,11.292759520955354
5.565336683817267,-2.012255582904792,5.448227286230006,6.23219316908353,0.6604804880942468,7.081586140302132
5.545214127988219,-2.0056507780238495,5.5105492179208415,6.303009030486551,4.828091469160021,2.1548733336809045
5.52515762020798,-1.9573698633322494,5.573579308225707,6.3245577638233605,9.197048627921463,-2.9866718633222193
5.505583921574658,-1.8653993770530348,5.63682488586394,6.294691045190138,13.30799303744626,-7.746526065069829
5.486929927804128,-1.7323194466785723,5.699771796315842,6.21722578453944,16.768731945589067,-11.625665107508262
5.469606733337342,-1.5646321272226815,5.761944054161236,6.100969133464357,19.365555932635367,-14.369466706314762
5.453960412065115,-1.370976567896328,5.822953745495879,5.957274466401209,21.08317723751819,-15.989282341431364
5.4402506463861515,-1.1601447955211461,5.882526490159892,5.797381642986895,22.04591987005309,-16.678471803289533
5.42864919843094,-0.9396855968206153,5.940500306589761,5.630596924954,22.43568827303846,-16.699838058372194
5.419252342462734,-0.7153287140902307,5.996806275839301,5.463598544370278,22.430298787095193,-16.30318254675494
5.412099055321832,-0.49102572621927876,6.051442261283004,5.300566718902728,22.173654014666827,-15.687139416831464
5.407188798059639,-0.2692891860726105,6.104447928472031,5.143695324734414,21.769423600252026,-14.992799282829344
5.404495906198913,-0.05159495007009024,6.155884881719375,4.99376733190612,21.286312781648952,-14.312429504090163
5.403979956698212,0.1612681777463993,6.205822555038436,4.850643036865219,20.766727714955326,-13.702135543603218
5.405592638475676,0.3689354548959526,6.2543289854070885,4.713621681429187,20.234910633796876,-13.193292479298565
5.409281993024636,0.5712845612339214,6.30146520222138,4.5816887566362015,19.703283300526362,-12.801217821538508
5.414994838636975,0.768317394239185,6.347282089787742,4.453676578420817,19.17696105771143,-12.531177923590493
5.422678012579367,0.9600870048162993,6.391818855571951,4.328364799184912,18.656804536788577,-12.38232172741471
5.43227888262753,1.146655050184185,6.4351025035638,4.204541581910765,18.141421043632246,-12.350159739432842
5.443745433129372,1.3280692606205076,6.477147919382908,4.081039984516436,17.62845265330275,-12.428080479502643
5.457026125735577,1.504353787153535,6.517958319228073,3.9567591797214097,17.115394332670125,-12.60825537768611
5.472069663607113,1.6755077304802364,6.557525911025286,3.8306766259445486,16.60010672455738,-12.882168395640013
5.488824740911915,1.8415087977258102,6.595832677284732,3.7018549419881484,16.08113080171143,-13.240924254891391
5.5072398288891735,2.0023201057429247,6.632851226704614,3.5694456994392345,15.557872520734586,-13.675433356595981
5.527263029946603,2.1578988309502707,6.668545683699006,3.4326913658732745,15.03070010873032,-14.176534780791101
5.548842018256106,2.308205832037574,6.7028725973577385,3.2909260180653637,14.50098048631487,-14.7350948930894
5.571924076576481,2.4532156369007225,6.7357818575383925,3.1435750691344695,13.97107142462145,-15.342103548826755
5.5964562329454886,2.592926351146937,6.767217608229737,2.990154033646202,13.444280163639279,-15.988779641535
5.622385496456958,2.72736915278333,6.7971191485662,2.830266237230852,12.924795907601192,-16.66669084627226
5.649659187984791,2.8566171118593418,6.825421810938508,2.663599328768129,12.417601866381432,-17.367887635859233
5.678225359103385,2.980793130523156,6.852057804226189,2.489920452409537,11.928371649160143,-18.085048237737567
5.708033290408617,3.1000768470147575,6.876957008750284,2.3090699700321613,11.463354351733189,-18.811628664381274
5.739034058878764,3.2147103905320895,6.9000477084506056,2.1209536833883487,11.029252239308894,-19.542009947857064
5.771181162784085,3.3250029129251786,6.921257245284489,1.925533583909778,10.633094195630646,-20.271632941502144
5.804431191913337,3.431333854881485,6.9405125811235875,1.7228172544947566,10.282106777752109,-20.997109184501507
5.838744530462152,3.534154922659006,6.957740753668535,1.5128461626497416,9.98358243350856,-21.716293907607138
5.874086079688742,3.6339907469940917,6.972869215295033,1.2956832235736702,9.744740753204638,-22.42830363127895
5.910425987158683,3.7314381545261384,6.985826047530769,1.0714001872608807,9.572572898907842,-23.13345498573693
5.947740368703944,3.8271638835152166,6.996540049403378,0.8400656374035114,9.473650636799903,-23.833091893786005
5.986012007539096,3.921900389883216,7.004940705777413,0.6017347184656513,9.453868267363305,-24.52925292702252
6.025231011437929,4.016439072556849,7.010958052962069,0.35644218919542614,9.518066092130933,-25.224106326861786
6.065395402163497,4.111619733478158,7.014522474854023,0.10420112592680825,9.669454852333365,-25.91904248869053
6.106511599498279,4.208314282001492,7.015564486113291,-0.15498929896009705,9.908717818232462,-26.613256971064665
6.148594742318294,4.307401460183817,7.01401459312369,-0.4211218686707437,10.232606408367936,-27.30157513915565
6.191668756920132,4.409727524267496,7.0098033744369825,-0.6941376200623002,10.631763555015048,-27.971158838967185
6.235766032162807,4.516045159817646,7.00286199823636,-0.9738492084519721,11.08741164584865,-28.59660409962243
6.280926483760983,4.626919276276133,6.99312350615184,-1.2598152494481965,11.566457483852691,-29.132828609151495
6.327195676523744,4.742583851114659,6.980525353657359,-1.5511435355397114,12.01458197704742,-29.50518266980817
6.374621515034891,4.862729670885134,6.9650139183019615,-1.8461953622377931,12.347207275695414,-29.59669581737782
6.423248811743742,4.986201743642088,6.946551964679584,-2.1421623204115714,12.439298987802458,-29.23390081166887
6.473110829180163,5.110594733520112,6.925130341475468,-2.43450132852826,12.117471184850654,-28.176247870504493
6.524216776515364,5.231769445368618,6.900785328190185,-2.716263807233305,11.162509066855037,-26.120693575319994
6.57653447096905,5.343394536037168,6.873622690117852,-2.977470742986505,9.336522103656089,-22.74160946031413
6.6299684163294215,5.436759757073729,6.843847982687987,-3.204886837589646,6.4512202115743476,-17.789193620154418
6.684336013900158,5.501271959189473,6.811799114312091,-3.3827787737911903,2.479505404327288,-11.248997016680507
6.739348733492053,5.526067013232746,6.777971326574179,-3.4952687439579955,-2.3304767913628956,-3.5038669673348317
6.7946094036243805,5.502762245319117,6.7430186391346,-3.530307413631344,-7.431533460959374,4.633913613178831
6.849637026077572,5.428446910709523,6.707715564998286,-3.4839682774995557,-12.122752800016135,12.13244345536783
6.903921495184667,5.307219382709362,6.67287588222329,-3.3626438429458774,-15.81458201983644,18.121326063271454
6.95699368901176,5.149073562510997,6.639249443793831,-3.181430582313163,-18.235499511008157,22.18981400070065
7.008484424636871,4.966718567400916,6.6074351379706995,-2.9595324423061564,-19.448654389314115,24.413303171216473
7.05815161031088,4.772232023507774,6.577839813547638,-2.715399410593992,-19.71921736116554,25.164943418679748
7.1058739305459575,4.575039849896119,6.550685819441698,-2.463749976407194,-19.36106728120214,24.8954986937146
7.151624329044918,4.381429177084097,6.526048319677626,-2.214794989470048,-18.64293278354266,23.996747802325377
7.195438620815759,4.194999849248671,6.503900369782926,-1.9748275114467944,-17.75817940509817,22.755693386839887
7.237388619308246,4.017418055197689,6.484152094668458,-1.7472705775783954,-16.830653628516217,21.360935120174553
7.277562799860223,3.849111518912527,6.466679388892674,-1.5336612263766498,-15.932412106940577,19.92681916180568
7.316053915049348,3.689787397843121,6.451342776628907,-1.334393034758593,-15.101110187279863,18.51772148006133
7.35295178902778,3.5387762959703224,6.437998846281322,-1.1492158199579798,-14.353181520033212,17.166703105424048
7.3883395519874835,3.3952444807699904,6.426506688081742,-0.9775487889037393,-13.692706499876085,15.888206803537837
7.422291996795184,3.25831741577123,6.416731200192705,-0.8186667208683609,-13.116990556716447,14.686137860117597
7.454875170952896,3.1271475102040656,6.408544532984021,-0.6718053422671849,-12.619921265110955,13.55879274201197
7.486146646054936,3.000948297552956,6.4018264795613495,-0.5362174148470652,-12.193919702602992,12.501770172219462
7.516156129030466,2.879009100526926,6.396464305412879,-0.4111997131248706,-11.831035820457677,11.509638059262167
7.544946220035735,2.760698742322349,6.39235230828163,-0.2961033325322489,-11.523536132269388,10.576851348776612
7.5725532074589585,2.6454633809996553,6.389391274956308,-0.1903348190444828,-11.264196755060762,9.698226990305342
7.599007841268955,2.5328214134490477,6.387487926765863,-0.09335254914142938,-11.046429259655538,8.869161671292357
7.624336055403446,2.4223571208524923,6.386554401274449,-0.004660932428505807,-10.864314377070833,8.08570349615
7.648559626611971,2.313713977081784,6.386507791950163,0.07619610253299419,-10.712587115274529,7.344543589434426
7.671696766382789,2.2065881059290384,6.387269752975493,0.14964153842733846,-10.586598149142798,6.642966441869674
7.693762647442079,2.1007221244376106,6.3887661683597665,0.2160712028460352,-10.48226535939539,5.978781589298091
7.714769868686455,1.9958994708436568,6.390926880388227,0.27585901873901614,-10.396023002239742,5.350249552552561
7.734728863394891,1.8919392408212594,6.393685470575617,0.32936151426454174,-10.32477231885585,4.756009231087328
7.753648255803104,1.788691517632701,6.396979085718263,0.376921606575415,-10.26583532545119,4.195010551474696
7.771535170979431,1.686033164378189,6.4007483017840165,0.418871712090162,-10.21691239586556,3.6664541773295385
7.788395502623213,1.5838640404195334,6.404937018904918,0.45553625386345736,-10.176043665034275,3.169738925365098
7.804234143027408,1.4821036037691906,6.4094923814435525,0.4872336431171084,-10.141574009099688,2.704416866582231
7.819055179065099,1.3806878636781936,6.414364717874723,0.5142778117829306,-10.112121258297687,2.2701557215017365
7.832862057701881,1.2795666510952168,6.419507495992552,0.536979368997948,-10.086547290650879,1.8667079644030775
7.845657724212833,1.178701178188708,6.424877289682532,0.5556464486419788,-10.063931690735055,1.4938859625943992
7.85744473599472,1.0780618612813575,6.430433754168951,0.5705853082679228,-10.043547711465102,1.1515424504420426
7.868225354607534,0.9776263841667064,6.43613960725163,0.5821007327723432,-10.024840333238842,0.8395556489592708
7.878001618449201,0.8773779808343181,6.4419606145793535,0.5904962892619359,-10.007406266369914,0.5578183750480227
7.886775398257544,0.777303918170619,6.447865577471973,0.5960744730124161,-9.990975786257664,0.30623053084323215
7.8945484374392505,0.6773941603080423,6.453826322202096,0.5991367783208484,-9.975396325335135,0.08469441739531787
7.901322379042331,0.5776401970546909,6.459817689985305,0.5999837224948016,-9.96061777198636,-0.10688762539747662
7.907098781012878,0.47803401933482736,6.465817527210253,0.5989148462408268,-9.94667944547403,-0.2686136914195748
7.911879121206226,0.37856722488008704,6.471806675672661,0.5962287093266311,-9.933698728875166,-0.4005812729903455
7.9156647934550275,0.27923023759133536,6.477768962765928,0.5922228965967277,-9.921861350522237,-0.5028850385946572
7.918457095830941,0.180011624086113,6.483691191731895,0.5871940462107811,-9.911413309826562,-0.5756136879927359
7.920257212071801,0.08089749098784736,6.489563132194003,0.5814379093308537,-9.902654446789317,-0.6188460943560775
7.92106618698168,-0.0181290534800458,6.495377511287312,0.575249448387293,-9.895933656959324,-0.6326468907989968
7.920884896446879,-0.11708839004963904,6.501130005771184,0.568922979479303,-9.891645755854324,-0.617061608918067
7.919714012546383,-0.21600484760818228,6.5068192355659775,0.5627523633901224,-9.890229999512016,-0.5721114297677583
7.917553964070302,-0.31490714760330246,6.512446759199879,0.5570312490924447,-9.892170271286892,-0.4977875631031951
7.914404892594269,-0.4138288503161714,6.518017071690803,0.5520533734614128,-9.897996949493859,-0.39404522874112996
7.910266604091107,-0.51280881981111,6.5235376054254175,0.5481129211740016,-9.908290476075742,-0.2607971746537379
7.905138515892996,-0.6118917245718675,6.529018734637157,0.5455049494274642,-9.923686652992268,-0.09790663024057436
7.8990195986472775,-0.7111285911017902,6.534473784131432,0.5445258831250585,-9.94488370008789,0.09482043921289977
7.89190831273626,-0.8105774281026691,6.539919042962683,0.5454740875171874,-9.972651115031304,0.3176439383726081
7.8838025384552335,-0.9103039392529821,6.545373783837855,0.5486505269009134,-10.007840381237253,0.5708992899571972
7.874699499062704,-1.0103823430653547,6.550860289106864,0.5543595198004854,-10.0513975713854,0.8550083172035852
7.86459567563205,-1.1108963187792087,6.556403884304869,0.5629096029725212,-10.104377888909289,1.1704915472770534
7.853486712444258,-1.2119400976683017,6.562032980334594,0.5746145184452918,-10.167962172403156,1.5179820927913563
7.841367311467575,-1.3136197193923334,6.567779125519047,0.5897943393732054,-10.243475350103191,1.8982412025966706
7.828231114273652,-1.4160544728933653,6.5736770689127795,0.6087767513991721,-10.332406760721963,2.3121754509436787
7.814070569544718,-1.5193785405005849,6.579764836426771,0.6318985059086089,-10.43643213323208,2.7608553263318307
7.798876784139712,-1.6237428618329057,6.5860838214858575,0.6595070591719272,-10.557436811219642,3.245534642460536
7.7826393555213835,-1.729317229945102,6.5926788920775765,0.6919624055965325,-10.697539470090335,3.767669654528
7.765346183221933,-1.8362926246460054,6.5995985161335415,0.7296391021418125,-10.859115035142198,4.328935919004526
7.746983256975473,-1.9448837749974275,6.60689490715496,0.7729284613318578,-11.044814653565359,4.931239622541124
7.727534419225499,-2.055331921533081,6.614624191768279,0.8222408575572691,-11.257579231973011,5.576718079363191
7.706981100010168,-2.167907713852811,6.622846600343851,0.878008038350901,-11.500640959606853,6.267720980433737
7.68530202287164,-2.2829141234488795,6.6316266807273605,0.9406852481552384,-11.77750399351129,7.006759200598127
7.662472881637151,-2.4006891633839924,6.641033533208913,1.0107528401612196,-12.091890475686398,7.796400669535807
7.638465990003311,-2.5216080681408566,6.651141061610525,1.0887168468565775,-12.44763036965872,8.639081702256444
7.613249909321903,-2.6460843718374436,6.66202823007909,1.175107663879142,-12.848461903115304,9.536785384204844
7.586789065603528,-2.7745689908685964,6.673779306717882,1.2704755177211904,-13.297691779014375,10.490513457734904
7.559043375694842,-2.90754590865874,6.686484061895094,1.3753806522985395,-13.797638222866505,11.499441133087185
7.529967916608255,-3.045522290887405,6.700237868418079,1.4903750636294113,-14.348742350390275,12.559591219191912
7.499512693699381,-3.1890097143913074,6.715141619054373,1.6159709758213303,-14.948181677016914,13.661791525330747
7.467622596555468,-3.3384915311614765,6.731301328812586,1.752588891074638,-15.587754403631097,14.788588843752322
7.434237681243853,-3.4943690751977874,6.748827217723333,1.900474779512161,-16.250734909337474,15.909699569343008
7.399293990491875,-3.656876424291162,6.767831965518455,2.0595717752055913,-16.907365228033985,16.975532583090065
