th1 (rad),w1 (rad/s),th2 (rad),w2 (rad/s),a1 (rad/s^2),a2 (rad/s^2)
2.929955190499348,1.8543055750558866,3.744996782002963,0.8522957416885273,-3.7174389723672596,5.608213514944673
2.948498246249907,1.8171311853322138,3.7535197394198483,0.908377876837974,-3.565690838109222,5.7207279460150176
2.966669558103229,1.7814742769511216,3.7626035181882282,0.9655851562981241,-3.407893107072986,5.8187984459420825
2.98448430087274,1.7473953458803917,3.7722593697512097,1.023773140757545,-3.243979711039254,5.903079251970177
3.001958254331544,1.7149555487699992,3.782497101158785,1.0828039332772468,-3.0739092516888564,5.974218741315394
3.019107809819244,1.6842164562531106,3.793325140491558,1.1425461206904006,-2.897657555412263,6.03285036572262
3.0359499743817753,1.6552398806989879,3.8047506016984616,1.202874624347627,-2.715210857553142,6.079584058171385
3.0525023731887653,1.6280877721234563,3.816779347941938,1.2636704649293409,-2.5265598289231215,6.1149984014679974
3.0687832509099997,1.6028221738342252,3.829416052591231,1.324820448944021,-2.3316946025757814,6.139633772748202
3.084811472648342,1.5795052278084674,3.8426642570806715,1.386216786671503,-2.1306009025563073,6.1539865993949565
3.1006065249264267,1.5581992187829043,3.8565264249473867,1.4477566526654526,-1.9232573218650433,6.158504785338536
3.1161885171142556,1.5389666455642539,3.871003991474041,1.509341700518838,-1.7096337467889668,6.153584296063056
3.131578183569898,1.5218703080963643,3.8860974084792295,1.5708775434794686,-1.4896908809825122,6.139566828824636
3.1467968866508618,1.506973399286539,3.901806183914024,1.632273211767715,-1.263380786460588,6.116738443550888
3.1618666206437274,1.4943395914219333,3.9181289160317014,1.693440596203224,-1.0306483306327214,6.085328990714317
3.1768100165579467,1.4840331081156062,3.935063321993734,1.7542938861103672,-0.7914334087726641,6.045512145481734
3.191650347639103,1.4761187740278796,3.9526062608548376,1.8147490075651844,-0.5456737995848686,5.997405842372093
3.206411535379382,1.4706620360320308,3.9707537509304895,1.8747230659889054,-0.2933085071894632,5.941072900793948
3.221118155739702,1.4677289509601361,3.989500981590379,1.934133794996845,-0.03428144506529616,5.876521638152232
3.2357954452493036,1.4673861365094831,4.0088423195403475,1.9928990113783671,0.23145467472915246,5.803706282468357
3.2504693066143986,1.4697006832567747,4.0287713096541315,2.050936074203051,0.5039343715018015,5.722527019269159
3.2651663134469664,1.4747400269717927,4.049280670396162,2.1081613443957425,0.7831754539784905,5.63282953641059
3.2799137137166845,1.4825717815115775,4.07036228384012,2.1644896397598483,1.0691751978558806,5.534403964020292
3.2947394315318004,1.4932635334901363,4.092007180237718,2.2198336794000513,1.3619067159335028,5.426983143380993
3.309672066866702,1.5068826006494713,4.114205517031718,2.274103510833861,1.661315576070698,5.310240196886718
3.3247408928731965,1.5234957564101783,4.136946552140056,2.3272059128027283,1.967316706099717,5.1837854098162195
3.3399758504372983,1.5431689234711754,4.160218611268084,2.3790437669008906,2.279791611596036,5.047162472331096
3.35540753967201,1.5659668395871358,4.184009048937092,2.4295153916242014,2.598585923123586,4.899844165722124
3.3710672080678816,1.5919526988183716,4.208304202853334,2.4785138332814225,2.923507285155974,4.741227609585607
3.386986735056065,1.6211877716699314,4.233089341186148,2.5259261093772785,3.254323600064775,4.570629215606976
3.4031986127727647,1.6537310076705791,4.258348602279921,2.571632401533348,3.590761647892979,4.387279518465607
3.4197359228494704,1.689638624149509,4.284064926295255,2.6155051967180043,3.9325061163942396,4.190318074748361
3.4366323090909656,1.7289636853134513,4.310219978262435,2.657408377465488,4.279199096072378,3.978788636517722
3.4539219459441,1.771755676274175,4.3367940620370895,2.6971962638306652,4.630440121510127,3.7516348172638425
3.471639502706842,1.8180600774892763,4.363766024675396,2.7347126120033036,4.985786872701457,3.507696474333198
3.4898201034817347,1.867917946216291,4.391113150795429,2.7697895767466356,5.344756687736964,3.2457070334525926
3.5084992829438977,1.9213655130936607,4.418811046562896,2.8022466470811613,5.706829080157906,2.9642919773736223
3.5277129380748344,1.9784338038952398,4.446833513033707,2.8318895668548976,6.071449499502297,2.661968711421149
3.547497276113787,2.0391482988902627,4.475152408702256,2.858509253969109,6.4380346207229,2.33714800299581
3.5678887591026895,2.1035286450974917,4.503737501241947,2.881880733999067,6.8059794957612905,1.9881371686632154
3.5889240455536644,2.1715884400551047,4.532556308581937,2.901762105685699,7.174666946898781,1.6131451498234102
3.6106399299542153,2.2433351095240925,4.5615739296387945,2.917893557183933,7.543479624626326,1.210289574277254
3.633073281049456,2.3187699057703557,4.590752865210634,2.9299964529267055,7.911815190479959,0.7776058443359849
3.6562609801071595,2.3978880576751553,4.620052829739901,2.9377725113700652,8.279105115087466,0.31305822060140065
3.680239860683911,2.48067910882603,4.649430554853602,2.9409030935760794,8.64483760074369,-0.1854472172042644
3.705046651772171,2.567127484833467,4.678839585789363,2.9390486214040368,9.008585142939875,-0.7200479553192455
3.730717926620506,2.6572133362628656,4.708230072003403,2.9318481418508444,9.370037232624561,-1.2929091193792297
3.7572900599831347,2.750913708589111,4.737548553421911,2.918919050657052,9.729038665957992,-1.906206708913384
3.784799197069026,2.848204095248691,4.7667377439284815,2.8998569835679184,10.085633865026255,-2.5621105977364653
3.813281238021513,2.9490604338989534,4.795736313764161,2.8742358775905537,10.44011751332296,-3.2627680233694734
3.8427718423605026,3.053461609032183,4.824478672540066,2.8416081973568588,10.793091662014838,-4.010288367203163
3.8733064584508243,3.161392525652331,4.852894754513635,2.801505313684827,11.145529249013457,-4.8067300250048595
3.904920383707348,3.272847818142466,4.880909807650483,2.7534380134347787,11.498843663918196,-5.654090021028706
3.9376488618887726,3.387836254781648,4.9084441877848315,2.6968971132244914,11.854963541245446,-6.55429663096004
3.971527224436589,3.5063858901941023,4.935413158917076,2.631354146914891,12.21641129538159,-7.509204500165725
4.00659108333853,3.628550003147918,4.961726700386225,2.5562621019132337,12.586382897487116,-8.520590345979397
4.042876583370009,3.7544138321227893,4.987289321405357,2.47105619845344,12.96882483073783,-9.590144964977434
4.080420721691237,3.884102080430168,5.011999883389891,2.3751547488036655,13.36850170896974,-10.719453385727322
4.119261742495539,4.017787097519865,5.035751430877928,2.267960214946392,13.791044158414858,-11.909948771616072
4.159439613470737,4.155697539104014,5.058431033027392,2.1488607272302316,14.24296036213469,-13.16281577537171
4.200996588861777,4.2981271427253605,5.0799196402996944,2.0172325694765143,14.731584746024243,-14.478803437734507
4.24397786028903,4.445442990185603,5.1000919659944595,1.8724445350991692,15.264921428041763,-15.857883260500738
4.288432290190887,4.59809220446602,5.118816411345451,1.7138657024941617,15.851314834656485,-17.298649990886016
4.334413212235547,4.756605352812585,5.135955068370392,1.5408792025853015,16.498840188267135,-18.7973039021927
4.381979265763673,4.921593754695256,5.151363860396245,1.3529061635633746,17.21424515123701,-20.345964219676553
4.431195203310625,5.093736206207626,5.164892922031878,1.149446521366609,18.001181663708866,-21.929931987708795
4.4821325653727015,5.273748022844715,5.176387387245544,0.930147201489521,18.857335443621025,-23.52333716605709
4.534870045601148,5.462321377280925,5.1856888592604395,0.6949138298289501,19.769890642005887,-25.082374263155767
4.589493259373958,5.660020283700984,5.192637997558729,0.44409008719739246,20.70859315343482,-26.535109024688502
4.646093462210968,5.867106215235332,5.1970788984307035,0.17873899695050743,21.615622850713734,-27.766814075132658
4.704764524363321,6.08326244374247,5.198866288400208,-0.09892914380081913,22.39188327398589,-28.600450435319683
4.765597148800746,6.3071812764823285,5.1978769969622,-0.384933648154016,22.88088620020832,-28.77429601400626
4.828668961565569,6.5359901384844115,5.19402766048066,-0.6726766082940786,22.855380262984344,-27.92459267362377
4.894028862950413,6.764543941114255,5.187300894397719,-0.9519225350303163,22.019486487646486,-25.592165653690824
4.961674302361556,6.98473880599072,5.177781669047416,-1.2078441915672244,20.04903509266805,-21.286225321996096
5.031521690421463,7.1852291569174005,5.165703227131744,-1.4207064447871853,16.695179053800945,-14.641593677127275
5.103373981990637,7.35218094745541,5.1514961626838724,-1.567122381558458,11.948545413528162,-5.664643308325137
5.176895791465191,7.471666401590691,5.1358249388682875,-1.6237688146417095,6.187356322927985,5.044518573887293
5.251612455481098,7.533539964819971,5.11958725072187,-1.5733236289028365,0.16361514029465962,16.307741232597216
5.326947855129298,7.535176116222917,5.103854014432842,-1.4102462165768643,-5.2541073475739335,26.744743238255133
5.402299616291526,7.482635042747178,5.089751552267073,-1.142798784194313,-9.442320767157407,35.31132917213988
5.477125966718998,7.388211835075604,5.07832356442513,-0.7896854924729142,-12.22256873230794,41.61099921631405
5.551008085069754,7.265986147752525,5.070426709500401,-0.3735755003097737,-13.794801522835945,45.81740569347371
5.62366794654728,7.128038132524165,5.066690954497303,0.0845985566249634,-14.534080062684534,48.38741008848446
5.694948327872521,6.982697331897319,5.067536940063553,0.568472657509808,-14.817759978758643,49.807621850271026
5.764775301191494,6.834519732109733,5.073221666638651,1.0665488760125184,-14.943583790424555,50.468304456377744
5.833120498512591,6.685083894205487,5.083887155398776,1.5712319205762957,-15.116050183303326,50.63722455486049
5.899971337454646,6.533923392372454,5.099599474604539,2.0776041661249005,-15.462578482930356,50.479759325258904
5.965310571378371,6.379297607543151,5.1203755162657885,2.5824017593774897,-16.05530850612156,50.09007929442887
6.029103547453802,6.218744522481935,5.146199533859563,3.0833025523217783,-16.929066261886277,49.51871763542515
6.091290992678622,6.049453859863072,5.177032559382781,3.57848972867603,-18.09377765303366,48.79304173178294
6.151785531277253,5.868516083332736,5.212817456669541,4.06642014599386,-19.542377239683205,47.93134115835612
6.21047069211058,5.673092310935904,5.25348165812948,4.545733557577421,-21.25574873410601,46.95215025910907
6.267201615219939,5.460534823594844,5.298938993705254,5.015255060168512,-23.20596959960495,45.880200682699915
6.321806963455887,5.228475127598794,5.349091544306939,5.474057066995511,-25.358725802997416,44.749956710037445
6.374091714731875,4.97488786956882,5.403832114976894,5.921556634095885,-27.675394930990077,43.60730954102733
6.423840593427563,4.698133920258919,5.463047681317853,6.357629729506158,-30.114986917202277,42.509736373704655
6.470821932630153,4.396984051086896,5.526623978612915,6.782727093243205,-32.63585331941587,41.52502109355706
6.514791773141021,4.070625517892737,5.594451249545347,7.197977304178775,-35.196784379894986,40.72840589209836
6.555498028319948,3.7186576740937873,5.666431022587135,7.605261363099759,-37.756746728202934,40.197685957404374
6.592684605060886,3.341090206811758,5.742483636218132,8.007238222673802,-40.27197834720553,40.00511167839475
6.626095507129004,2.9383704233397023,5.82255601844487,8.40728933945775,-42.68830147470861,40.20378769695738
6.655479211362401,2.5114874085926164,5.906628911839448,8.809327216427324,-44.925136636704686,40.804241389657385
6.680594085448327,2.0622360422255697,5.994722184003721,9.217369630323898,-46.84567208280555,41.73373495794507
6.701216445870583,1.5937793213975142,6.08689588030696,9.63470697990335,-48.20546152042366,42.76727717540623
6.717154239084558,1.1117247061932776,6.183242950105994,10.062379751657412,-48.572334584250434,43.41896818946687
6.728271486146491,0.6260013603507733,6.283866747622568,10.49656943355208,-47.22388261850307,42.79867111967496
6.734531499749999,0.15376253416574254,6.388832441958089,10.92455614474883,-43.078822353590944,39.50482216198657
6.736069125091657,-0.2770256893701669,6.498078003405577,11.319604366368697,-34.834417634186615,31.78087323703032
6.733298868197955,-0.625369865712033,6.611274047069264,11.637413098739,-21.604825698118148,18.33388449284166
6.727045169540834,-0.8414181226932145,6.727648178056654,11.820751943667416,-4.118377076086424,-0.09578599089391668
6.718630988313902,-0.8826018934540787,6.845855697493328,11.819794083758477,14.50876556765406,-19.718121315159458
6.709804969379361,-0.7375142377775381,6.964053638330913,11.622612870606883,30.066800006237656,-35.40582266455616
6.702429827001586,-0.4368462377151615,7.080279767036982,11.268554643961322,40.00384072647775,-44.262594475879894
6.698061364624434,-0.03680783045038405,7.192965313476596,10.825928699202523,44.52771510328341,-46.9214842415611
6.69769328631993,0.4084693205824501,7.301224600468621,10.35671385678691,45.327327084661945,-45.75492561890971
6.701777979525755,0.8617425914290695,7.40479173903649,9.899164600597814,44.0686436318481,-42.9277825285296
6.710395405440045,1.3024290277475505,7.5037833850424684,9.469886775312517,41.84448130090711,-39.7653795664783
6.723419695717521,1.7208738407566218,7.598482252795594,9.072232979647733,39.23903065675939,-36.905203161639356
6.740628434125087,2.1132641473242155,7.689204582592072,8.70318094803134,36.52525124628416,-34.58457880437333
6.761761075598329,2.478516659787057,7.776236392072385,8.357335159987606,33.81509124182378,-32.84367887120326
6.7865462421961995,2.8166675722052945,7.859809743672261,8.028898371275574,31.146043430901603,-31.636327126204463
6.814712917918253,3.1281280065143107,7.940098727385017,7.712535100013529,28.525487884246004,-30.883755368804543
6.845994197983396,3.4133828853567705,8.017224078385151,7.403697546325484,25.951882880928512,-30.498904997282033
6.880128026836964,3.6729017141660556,8.091261053848406,7.098708496352663,23.4241586500939,-30.396801441065445
6.9168570439786246,3.9071433006669944,8.162248138811933,6.794740481942009,20.945273696859545,-30.498730484213688
6.955928476985295,4.11659603763559,8.230195543631353,6.489753177099872,18.522923534508212,-30.7338218858842
6.997094437361651,4.301825272980672,8.295093075402352,6.18241495824103,16.16889325392177,-31.03962973139815
7.0401126900914575,4.46351420551989,8.356917224984763,5.872018660927049,13.89781473083251,-31.362352112920203
7.084747832146657,4.602492352828215,8.415637411594034,5.558395139797847,11.725734479075019,-31.65690458575785
7.130772755674939,4.7197496976189655,8.471221362992011,5.2418260939402685,9.668720946815148,-31.886881906495255
7.177970252651129,4.816436907087117,8.523639623931414,4.922957274875316,7.741644621502536,-32.02438075231664
7.226134621722,4.893853353302142,8.572869196680168,4.6027134673521495,5.957206069699427,-32.04964930580507
7.275073155255021,4.9534254139991365,8.618896331353689,4.282216974294099,4.325246351411585,-31.950546190315727
7.324607409395012,4.996677877513252,8.66171850109663,3.9627115123909413,2.852343294701899,-31.72181488367011
7.374574188170145,5.025201310460272,8.70134561622054,3.64549336355424,1.541673331532024,-31.36420180331584
7.424826201274748,5.040618043775592,8.737800549856082,3.331851345521082,0.393101407334336,-30.883462453161016
7.475232381712504,5.044549057848935,8.771119063311293,3.023016720989472,-0.5965492626268287,-30.289308710491433
7.525677872290994,5.038583565222667,8.801349230521188,2.7201236338845574,-1.4331004930255564,-29.594351580356165
7.576063707943221,5.024252560292411,8.828550466860033,2.424180118080996,-2.124547805620715,-28.813088702675742
7.626306233546145,5.003007082236204,8.852792268040844,2.1360492310542383,-2.6805621295527837,-27.960976302697254
7.6763363043685064,4.976201460940676,8.874152760351386,1.8564394680272658,-3.1120047560333637,-27.053613062604434
7.726098318977913,4.9450814133803425,8.892717155031658,1.5859033374012215,-3.4304869816336687,-26.10605038483618
7.775549133111716,4.910776543564006,8.90857618840567,1.3248428335528597,-3.647996889873482,-25.132231220172876
7.824656898547357,4.874296574665271,8.921824616741198,1.073520521351131,-3.7766074676514836,-24.144549124996992
7.87339986429401,4.836530499988756,8.932559821954708,0.832075030101161,-3.828273312236194,-23.153511140700203
7.921765169293897,4.798247766866394,8.94088057225572,0.600539918694159,-3.814717781454553,-22.16748275251453
7.969747646962561,4.760100589051849,8.946885971442661,0.3788650911690137,-3.7474084516991,-21.19249068135142
8.017348652853078,4.722626504534857,8.950674622354352,0.16694018435549948,-3.6376157151417963,-20.232059678224843
8.064574917898428,4.68625034738344,8.952344024197908,-0.03538041242674894,-3.4965464646260647,-19.287063126551804
8.111437421372262,4.651284882737179,8.95199022007364,-0.22825104369226698,-3.33554090076745,-18.355574852047315
8.157950270199633,4.617929473729505,8.949707709636717,-0.41180679221274014,-3.166313949498967,-17.43272246187429
8.204129564936927,4.586266334234515,8.94558964171459,-0.586134016831483,-3.001211589750027,-16.510562840731126
8.249992228279273,4.556254218337014,8.939728301546277,-0.7512396452387943,-2.85343436155258,-15.578030577587384
8.295554770462644,4.527719874721488,8.932215905093889,-0.9070199510146681,-2.7371537889256454,-14.621051899503392
8.340831969209859,4.500348336832232,8.923145705583742,-1.0532304700097022,-2.667412954840684,-13.62296890909331
8.385835452578181,4.473674207283826,8.912613400883645,-1.1894601591006353,-2.6596658934904664,-12.565472792494493
8.43057219465102,4.447077548348921,8.900718799292639,-1.3151148870255802,-2.7287876493384804,-11.430277364206283
8.47504297013451,4.419789671855536,8.887567650422383,-1.429417660667643,-2.8874079886848465,-10.201732791622833
8.519240866853066,4.390915591968688,8.873273473815706,-1.5314349885838714,-3.1435304238361588,-8.870421913209695
8.563150022772753,4.359480287730326,8.857959123929867,-1.6201392077159684,-3.497635382135103,-7.437440982931333
8.606744825650056,4.324503933908975,8.841757731852708,-1.6945136175452817,-3.9398298703778742,-5.918547896110928
8.649989864989145,4.285105635205197,8.824812595677255,-1.753699096506391,-4.4479924489093685,-4.346813608339988
8.692840921341197,4.2406257107161025,8.80727560471219,-1.797167232589791,-4.9880372103327835,-2.7721724239304972
8.735247178448358,4.190745338612775,8.789303932386293,-1.824888956829096,-5.517098071505995,-1.2567408918995022
8.777154631834485,4.135574357897715,8.771055042818002,-1.8374563657480911,-5.9895060558696125,0.13388470579960837
8.818510375413462,4.075679297339019,8.75268047916052,-1.836117518690095,-6.364206509358538,1.3413820479930403
8.859267168386852,4.012037232245434,8.73431930397362,-1.8227036982101648,-6.6114277881962265,2.324342895629949
8.899387540709306,3.9459229543634717,8.716092266991518,-1.7994602692538653,-6.716572705518411,3.0638716211707333
8.93884677025294,3.8787572273082875,8.69809766429898,-1.7688215530421578,-6.6804416148581875,3.563856123234287
8.977634342526024,3.811952811159706,8.680409448768557,-1.733182991809815,-6.5163283431100805,3.8466920483354423
9.01575387063762,3.746789527728605,8.66307761885046,-1.6947160713264606,-6.245458291729811,3.9465849439134804
9.053221765914907,3.6843349448113067,8.646130458137195,-1.6552502218873257,-5.892332260636481,3.9026984324417957
9.09006511536302,3.625411622204942,8.629577955918322,-1.6162232375629078,-5.481029280309145,3.7536854984041597
9.12631923158507,3.5706013294018506,8.613415723542692,-1.5786863825788662,-5.032856987175133,3.5341804074625327
9.162025244879088,3.520272759530099,8.597628859716904,-1.5433445785042408,-4.565243659437563,3.273110016003097
9.197227972474389,3.4746203229357233,8.582195413931862,-1.5106134783442098,-4.091534991149628,2.993342705128499
9.231974175703746,3.433704973024227,8.56708927914842,-1.4806800512929248,-3.6213308372930957,2.7121469538991065
9.266311225433988,3.3974916646512963,8.55228247863549,-1.4535585817539338,-3.1610716428708785,2.442035430596962
