th1 (rad),w1 (rad/s),th2 (rad),w2 (rad/s),a1 (rad/s^2),a2 (rad/s^2)
3.858435754838039,1.6299417997574532,0.29925888101190445,2.52687669760704,10.168634581811439,5.328260728515645
3.874735172835613,1.7316281455755675,0.32452764798797484,2.5801593048921965,10.191683697635742,5.036350269217925
3.892051454291369,1.833544982551925,0.35032924103689683,2.630522807584376,10.209139395151658,4.729713931617357
3.910386904116888,1.9356363765034417,0.37663446911274057,2.6778199469005495,10.220920932405699,4.408708516724889
3.929743267881922,2.037845585827499,0.40341266858174607,2.7219070320677985,10.226909725313451,4.073589679427941
3.9501217237401973,2.1401146830806335,0.43063173890242407,2.762642928862078,10.226924525974418,3.724475580098585
3.9715228705710035,2.2423839283403777,0.45825816819104487,2.799887684663064,10.22069493801478,3.3613092219288725
3.9939467098544075,2.3445908777205253,0.48625704503767553,2.8335007768823526,10.207833986214355,2.983820533799701
4.017392618631613,2.4466692175826688,0.5145920528064991,2.8633389822203497,10.18781056787724,2.59148940511088
4.041859310807439,2.5485473232614413,0.5432254426287026,2.8892538762714586,10.159922720615052,2.1835110276513743
4.067344784040054,2.650146550467592,0.5721179813914172,2.911088986547972,10.123272750199671,1.7587650570588829
4.09384624954473,2.7513792779695887,0.601228871256897,2.928676637118561,10.076745379074598,1.315790280244294
4.121360042324426,2.852146731760335,0.6305156376280826,2.941834539921004,10.018990207698321,0.8527666721584071
4.14988150964203,2.952336633837318,0.6599339830272927,2.950362206642588,9.948409933155725,0.3675069495866893
4.179404875980403,3.051820733168875,0.6894376050937185,2.954037276138455,9.863155946154986,-0.14254001977034741
4.209923083312091,3.150452292630425,0.7189779778551031,2.952611875940751,9.76113312805516,-0.680271327083916
4.241427606238395,3.2480636239109764,0.7485040966145106,2.945809162669912,9.64001588661551,-1.248894761569035
4.273908242477505,3.3444637827771313,0.7779621882412097,2.9333202150542217,9.497277685779409,-1.8518730665343046
4.3073528803052765,3.4394365596349252,0.8072953903917519,2.9148014843888785,9.330236511279056,-2.4928444738089075
4.341747245901626,3.532738924747716,0.8364434052356406,2.8898730396507895,9.136118824429628,-3.175516329020403
4.377074635149103,3.624100112992012,0.8653421356321486,2.8581178763605855,8.912144526608028,-3.903528954014261
4.413315636279023,3.7132215582580925,0.8939233143957545,2.8190825868204428,8.65563520169427,-4.680287640835076
4.450447851861604,3.799777910275035,0.9221141402639589,2.772279710412092,8.36414731915268,-5.508761985879077
4.488445630964354,3.883419383466562,0.9498369373680798,2.717192090553301,8.035631049030032,-6.391253811963809
4.527279824799019,3.9637756939568622,0.9770088582736128,2.653279552433663,7.668613743944937,-7.329137831927529
4.566917581738588,4.040461831396311,1.0035416537979496,2.579988174114388,7.2624048859072206,-8.322583066276145
4.607322200052551,4.113085880255384,1.0293415355390934,2.4967623434516266,6.817316336896775,-9.370267816332023
4.648453058855105,4.181259043624352,1.0543091589736096,2.4030596652883065,6.334888131656748,-10.469106514050901
4.690265649291348,4.24460792494092,1.0783397556264926,2.2983686001477976,5.8181060224161945,-11.614012573597327
4.732711728540757,4.302788985165082,1.1013234416279707,2.1822284744118243,5.2715929443466685,-12.79772670700638
4.775739618392407,4.355504914608548,1.123145726372089,2.0542512073417605,4.701753165408869,-14.01074396720437
4.819294667538493,4.402522446262637,1.1436882384455065,1.9141437676697168,4.116845978483815,-15.24137372273949
4.86331989200112,4.443690906047475,1.1628296761222037,1.761730030442322,3.5269663783835705,-16.47596345141764
4.907756801061595,4.478960569831311,1.180446976426627,1.5969703959281456,2.94391418069037,-17.699308502661417
4.952546406759908,4.508399711638215,1.1964166803859084,1.4199773109015315,2.3809411041668653,-18.895255315752333
4.997630403876291,4.532209122679883,1.2106164534949237,1.231024757744008,1.8523774447254562,-20.047485592279582
5.04295249510309,4.550732897127138,1.222926701072364,1.0305499018212123,1.3731552095611708,-21.140445636732967
5.088459824074361,4.56446444922275,1.233232200090576,0.8191454454538827,0.9582610457216654,-22.160361986756715
5.134104468566589,4.574047059679966,1.2414236545451147,0.5975418255863155,0.622167252142968,-23.096266070770458
5.179844939163389,4.580268732201396,1.2473990728009778,0.366579164878611,0.37829955149860806,-23.940941590849047
5.225647626485403,4.584051727716382,1.251064864449764,0.1271697489701205,0.2386035079173252,-24.69171215928927
5.271488143762566,4.586437762795555,1.252336561939465,-0.11974737262277221,0.21326616661489434,-25.351004651499515
5.3173525213905215,4.588570424461704,1.2511390882132374,-0.37325741913776733,0.310636174117186,-25.926654027455555
5.363238225635139,4.591676786202876,1.2474065140218598,-0.6325239594123229,0.5373667716681826,-26.431953447171107
5.409154993497168,4.597050453919557,1.2410812744277366,-0.896843493884034,0.8987855423135961,-26.885493032725503
5.455125498036364,4.6060383093426935,1.2321128394888963,-1.165698424211289,1.399477014216251,-27.310865189000705
5.501185881129791,4.620033079484856,1.2204558552467835,-1.438807076101296,2.0440529228925253,-27.736339164679322
5.547386211924639,4.640473608713782,1.2060677844857706,-1.7161704677480893,2.838082319569548,-28.194620392254212
5.593790948011777,4.668854431909478,1.1889060798082898,-1.9981166716706316,3.789159984693724,-28.72281177264457
5.640479492330872,4.706746031756415,1.1689249130915835,-2.2853447893970773,4.908104887243995,-29.362686938334242
5.687546952648436,4.755827080628855,1.1460714651976127,-2.5789716587804197,6.210296700285055,-30.1613718020183
5.735105223454725,4.817930047631705,1.1202817486098084,-2.8805853768006027,7.717170672756248,-31.17250883739958
5.783284523931042,4.895101754359268,1.0914758948418024,-3.1923104651745984,9.457886665311113,-32.457937484873725
5.832235541474635,4.989680621012379,1.0595527901900563,-3.5168898400233357,11.471140639431196,-34.089831710295805
5.882132347684759,5.104392027406691,1.024383891789823,-3.8577881571262935,13.806938574163647,-36.15301362989163
5.933176267958825,5.242461413148328,0.98580601021856,-4.21931829342521,16.52777273510204,-38.74662793069906
5.985600882090309,5.407739140499348,0.9436128272843078,-4.6067845727322005,19.707729433737914,-41.98309758799284
6.039678273495302,5.604816434836727,0.8975449815569858,-5.026615548612129,23.42593651931463,-45.9793370941659
6.09572643784367,5.839075800029874,0.8472788260708646,-5.486408919553788,27.745918186414666,-50.8284625233555
6.154117195843969,6.11653498189402,0.7924147368753267,-5.994693544787343,32.661712206743346,-56.52529074007202
6.215282545662909,6.443152103961453,0.7324678014274533,-6.559946452188063,37.96952138084683,-62.78803589263087
6.279714066702524,6.822847317769922,0.6668683369055727,-7.1878268111143715,42.98621366226498,-68.666096124754
6.347942539880223,7.252709454392572,0.594990068794429,-7.8744877723619116,46.01122020343452,-71.78882189990601
6.4204696344241485,7.712821656426917,0.5162451910708098,-8.59237599136097,43.60370272253243,-67.35521632198753
6.497597850988417,8.148858683652241,0.4303214311572001,-9.265928154580847,30.703191371674432,-48.304583186325
6.57908643782494,8.455890597368985,0.3376621496113916,-9.748973986444096,4.470991201666243,-10.698790418928185
6.66364534379863,8.500600509385647,0.24017240974695067,-9.855961890633377,-28.01015178152301,35.50784292732968
6.748651348892487,8.220498991570416,0.1416127908406169,-9.50088346136008,-51.393001890291245,68.84258293438147
6.830856338808191,7.706568972667504,0.04660395622701609,-8.812457632016265,-58.60835263860387,79.47636355391693
6.907922028534866,7.1204854462814655,-0.04152062009314657,-8.017693996477096,-55.100608408552105,75.05944303818193
6.979126882997681,6.569479362195945,-0.12169756005791753,-7.267099566095276,-47.93100294054916,65.45712061737306
7.044821676619641,6.090169332790453,-0.1943685557188703,-6.612528359921546,-40.671917484968105,55.65064321813687
7.105723369947546,5.683450157940772,-0.2604938393180858,-6.0560219277401774,-34.44154088935823,47.19985170508367
7.162557871526953,5.339034749047189,-0.3210540585954876,-5.5840234106893405,-29.375955139636538,40.297929967553145
7.215948219017426,5.045275197650824,-0.376894292702381,-5.181044111013809,-25.322744123249556,34.73639041792422
7.266400970993934,4.792047756418328,-0.4287047338125191,-4.833680206834567,-22.083769250207258,30.24214074813287
7.314321448558117,4.571210063916255,-0.4770415358808648,-4.531258799353238,-19.484760169753233,26.574019024564183
7.36003354919728,4.376362462218723,-0.5223541238743972,-4.2655186091075965,-17.387940217757293,23.540398494808862
7.403797173819467,4.20248306004115,-0.5650093099654732,-4.030114624159508,-15.688345315203618,20.994260810124235
7.445822004419878,4.045599606889113,-0.6053104562070682,-3.8201720160582657,-14.30689658338059,18.823818284693346
7.4862780004887695,3.9025306410553076,-0.6435121763676509,-3.6319338332113325,-13.18399634813464,16.943896967510778
7.525303306899323,3.770690677573961,-0.6798315146997642,-3.4624948635362247,-12.27444540813828,15.28918523832949
7.563010213675063,3.6479462234925784,-0.7144564633351265,-3.3096030111529298,-11.543609307562805,13.809252512652286
7.599489675909989,3.5325101304169504,-0.7475524934466558,-3.1715104860264067,-10.964567118245942,12.46497413933462
7.634814777214158,3.422864459234491,-0.7792675983069198,-3.0468607446330607,-10.515983614633948,11.226005762645814
7.669043421806503,3.3177046230881517,-0.8097362057532504,-2.9346006870066024,-10.180500969152842,10.06902093512293
7.7022204680373845,3.215899613396623,-0.8390822126233165,-2.833910477655373,-9.943502766455262,8.976495530969723
7.734379464171351,3.1164645857320705,-0.8674213173998703,-2.7441455223456757,-9.792149899416367,7.935876072137474
7.765544110028672,3.018543086737907,-0.894862772623327,-2.664786761624301,-9.714624085557343,6.939006084831988
7.795729540896051,2.9213968458823336,-0.9215106402395701,-2.595396700775981,-9.699542129717466,5.981708775239898
7.824943509354875,2.824401424585159,-0.9474646072473298,-2.535579613023582,-9.735524347882194,5.063440078936603
7.8531875236007265,2.727046181106337,-0.9728204033775657,-2.4849452122342157,-9.810914660070356,4.186937755933932
7.88045798541179,2.6289370345056335,-0.9976698554999078,-2.443075834674876,-9.913657871772887,3.357803551024967
7.906747355756846,2.5298004557879046,-1.0221006138466566,-2.4094977991646265,-10.031341214997964,2.583969828714728
7.932045360314725,2.429487043637925,-1.0461955918383028,-2.3836581008774793,-10.151401910833703,1.8750218871924902
7.956340230751104,2.3279730245295878,-1.0700321728470776,-2.3649078820055545,-10.261490505064325,1.241373201044464
7.9796199609964,2.2253581194789445,-1.0936812516671333,-2.3524941499951098,-10.34996231538151,0.6933218667272534
8.00187354219119,2.1218584963251295,-1.1172061931670842,-2.3455609313278374,-10.40644933431468,0.24004881246717966
8.02309212715444,2.0177940029819825,-1.1406618024803625,-2.3431604432031654,-10.422446649978031,-0.11135399380778821
8.04327006718426,1.9135695364822023,-1.1640934069123943,-2.3442739831412434,-10.391835974856734,-0.3567209563674774
8.062405762549082,1.809651176733635,-1.1875361467438068,-2.347841192704918,-10.311268830984856,-0.49541287635864373
8.080502274316418,1.7065384884237864,-1.211014558670856,-2.3527953214685047,-10.180345879216437,-0.5305983138524469
8.097567659200655,1.604735029631622,-1.234542511885541,-2.358101304607029,-10.00155596773562,-0.46917502887317947
8.113615009496971,1.5047194699542659,-1.2581235249316114,-2.3627930548957607,-9.77997411045858,-0.3213412540267033
8.128662204196514,1.40691972884968,-1.281751455480569,-2.3660064674360277,-9.522754365964973,-0.0998776173189826
8.142731401485012,1.3116921851900303,-1.3054115201549292,-2.3670052436092175,-9.238483330155578,0.18075981123058382
8.155848323336912,1.2193073518884745,-1.3290815725910214,-2.3651976454969117,-8.936476338906228,0.5054150892612451
8.168041396855797,1.1299425884994123,-1.3527335490459906,-2.360143494604299,-8.626098874849664,0.8591593422234142
8.17934082274079,1.0436815997509157,-1.3763349839920336,-2.351551901182065,-8.316181722491363,1.2280745514736742
8.1897776387383,0.960519782526002,-1.3998505030038542,-2.3392711556673285,-8.014575067226623,1.5998345741824367
8.199382836563561,0.8803740318537358,-1.4232432145605274,-2.3232728099255042,-7.72786033389937,1.9640617321852702
8.208186576882099,0.803095428514742,-1.4464759426597824,-2.3036321926036516,-7.461214845516569,2.3124703745132185
8.216217531167246,0.7284832800595763,-1.469512264585819,-2.2805074888585195,-7.218407108251423,2.6388320768752016
8.22350236396784,0.6562992089770621,-1.4923173394744043,-2.2541191680897676,-7.0018910487321095,2.938809111952004
8.230065356057612,0.586280298489741,-1.514858531155302,-2.2247310769702477,-6.812965185070071,3.2097047961780203
8.235928159042508,0.5181506466390402,-1.5371058419250045,-2.1926340290084676,-6.651965645422718,3.4501741382657016
8.2411096655089,0.451630990184813,-1.5590321822150892,-2.1581322876258104,-6.518467937058468,3.659929098805832
8.245625975410748,0.3864463108142283,-1.5806135050913472,-2.121532996637752,-6.411479444784078,3.8394624774333295
8.24949043851889,0.3223315163663875,-1.6018288350577248,-2.0831383718634187,-6.3296113867698915,3.989804888557594
8.252713753682555,0.2590354024986886,-1.622660218776359,-2.0432403229778426,-6.271224572455464,4.112321507565166
8.255304107707541,0.19632315677413398,-1.6430926220061375,-2.002117107902191,-6.234547489050306,4.208549604475596
8.257267339275282,0.1339776818836309,-1.6631137930851594,-1.960031611857435,-6.217768028625061,4.280074210278851
8.258607116094119,0.07180000159738029,-1.6827141092037337,-1.9172308697546465,-6.219101779819083,4.328437225732195
8.259325116110093,0.009608983799189452,-1.70188641790128,-1.8739464974973246,-6.236840535515506,4.355074454213439
8.259421205948085,-0.05275942155596561,-1.7206258828762533,-1.8303957529551902,-6.269384790525432,4.36127501743195
8.258893611732525,-0.11545326946121993,-1.7389298404058051,-1.7867830027808707,-6.315263755351614,4.348158067730202
8.257739079037913,-0.17860590701473608,-1.756797670433614,-1.7433014221035685,-6.37314596954337,4.316662402042547
8.255953019967766,-0.24233736671016978,-1.7742306846546496,-1.7001347980831432,-6.44184308221105,4.267545347956931
8.253529646300665,-0.30675579753228027,-1.7912320326354811,-1.657459344603574,-6.520308854071067,4.201388032698242
8.250462088325342,-0.37195888607299094,-1.8078066260815169,-1.6154454642765914,-6.6076349675010935,4.118604808350179
8.246742499464613,-0.43803523574800185,-1.8239610807242828,-1.5742594161930896,-6.7030448279956865,4.019455169445802
8.242362147107134,-0.5050656840279587,-1.8397036748862137,-1.5340648644986317,-6.805886206988063,3.9040569595884
8.237311490266855,-0.5731245460978394,-1.8550443235312,-1.4950242949027477,-6.915623308656407,3.7724000301061436
8.231580244805876,-0.6422807791844034,-1.8699945664802275,-1.4573002946016862,-7.031828634242304,3.6243597989829537
8.225157437014031,-0.7125990655268264,-1.8845675694262445,-1.4210566966118567,-7.154174857202814,3.4597103769819704
8.218031446358763,-0.7841408140988545,-1.898778136392363,-1.3864595928420371,-7.28242680185224,3.2781370939505536
8.210190038217775,-0.8569650821173769,-1.9126427323207833,-1.3536782219025316,-7.416433528539579,3.0792483841451967
8.2016203873966,-0.9311294174027727,-1.9261795145398086,-1.3228857380610797,-7.556120462590969,2.8625870854361004
8.192309093222573,-1.0066906220286824,-1.9394083719204194,-1.2942598672067187,-7.701481456271062,2.627641281818091
8.182242187002286,-1.083705436591393,-1.9523509705924866,-1.2679834543885378,-7.852570638182047,2.373854878260026
8.171405132636373,-1.1622311429732135,-1.965030805136372,-1.2442449056059375,-8.009493879253823,2.10063814638838
8.15978282120664,-1.2423260817657518,-1.9774732541924314,-1.2232385241420536,-8.172399686209799,1.8073785221800727
8.147359560388983,-1.3240500786278497,-1.989705639433852,-1.2051647389202529,-8.341469320421965,1.4934519748156865
8.134119059602705,-1.4074647718320694,-2.0017572868230546,-1.190230219172096,-8.516905931480402,1.158235300053322
8.120044411884384,-1.4926338311468734,-2.0136595890147757,-1.1786478661715627,-8.698922490400765,0.801119721802676
8.105118073572916,-1.579623056050881,-2.025446067676491,-1.170636668953536,-8.88772830766776,0.4215262108594254
8.089321843012407,-1.6685003391275586,-2.0371524343660266,-1.1664214068449417,-9.083513927426676,0.01892294781933806
8.072636839621131,-1.7593354784018254,-2.048816648434476,-1.1662321773667483,-9.28643420292403,-0.40715463521813894
8.055043484837112,-1.8521998204310657,-2.0604789702081434,-1.1703037237189298,-9.4965893822715,-0.8570808067881656
8.036521486632802,-1.9471657142537806,-2.0721820074453325,-1.1788745317868115,-9.714004070919525,-1.3311130822411537
8.017049829490265,-2.0443057549629757,-2.0839707527632005,-1.192185662609223,-9.93860399161873,-1.8293620186737296
7.996606771940635,-2.143691794879163,-2.095892609389293,-1.2104792827959603,-10.170190538298463,-2.351757002355942
7.975169853991844,-2.245393700262148,-2.1079974022172525,-1.2339968528195198,-10.40841322158176,-2.898007904269984
7.952715916989222,-2.3494778324779655,-2.120337370745448,-1.2629769318622197,-10.652740234766219,-3.467562662572914
7.929221138664442,-2.4560052348256276,-2.13296714006407,-1.2976525584879488,-10.902427533448959,-4.05956109322883
7.904661086316185,-2.5650295101601173,-2.1459436656489492,-1.338248169420237,-11.156487021434646,-4.67278553788297
7.879010791214584,-2.6765943803744636,-2.1593261473431515,-1.3849760247990668,-11.413654669473345,-5.305609334132311
7.852244847410839,-2.790730927069197,-2.1731759075911423,-1.43803211814039,-11.672359657344654,-5.9559445352953935
7.824337538140147,-2.9074545236426435,-2.187556228772546,-1.4975915634933439,-11.930695914436887,-6.621190804691127
7.795262992903721,-3.026761482787012,-2.2025321444074795,-1.5638034715402551,-12.18639772360193,-7.298187943477782
7.764995378075851,-3.1486254600230317,-2.218170179122882,-1.636785350975033,-12.436821324804772,-7.983175049353226
7.7335091234756215,-3.2729936732710794,-2.2345380326326323,-1.7166171014685652,-12.678934678450958,-8.671759800363803
7.700779186742911,-3.399783020055589,-2.251704203647318,-1.8033346994722033,-12.909317685851263,-9.358901754503012
7.666781356542355,-3.5288761969141014,-2.2697375506420396,-1.8969237170172333,-13.124175173810388,-10.038913780786745
7.631492594573214,-3.6601179486522053,-2.288706787812212,-1.9973128548251007,-13.319364788553095,-10.70548571326802
7.594891415086693,-3.793311596537736,-2.3086799163604628,-2.104367711957781,-13.490441572648546,-11.35173396943596
7.556958299121315,-3.9282160122642216,-2.3297235934800407,-2.2178850516521407,-13.63272039099948,-11.970280134718895
7.517676138998673,-4.064543216174217,-2.351902443996562,-2.3375878529993295,-13.741356522651039,-12.55336034804765
7.47703070683693,-4.201956781400727,-2.3752783225265555,-2.463121456479806,-13.81144366704114,-13.092965733586045
7.435011139022923,-4.340071218071139,-2.3999095370913537,-2.5940511138156666,-13.83812738357374,-13.581012168797574
7.391610426842212,-4.478452491906876,-2.4258500482295102,-2.7298612355036425,-13.816730685003435,-14.009535478436336
7.346825901923143,-4.61661979875691,-2.4531486605845467,-2.8699565902880058,-13.742887262007017,-14.370905877298862
7.300659703935574,-4.754048671376981,-2.481848226487427,-3.0136656490609943,-13.612676771436252,-14.658053378326517
7.253119217221805,-4.890175439091343,-2.511984882978037,-3.1602461828442596,-13.422755917388091,-14.864694185925059
7.204217462830892,-5.024402998265224,-2.5435873448064794,-3.30889312470351,-13.170478812945682,-14.985547043835854
