th1 (rad),w1 (rad/s),th2 (rad),w2 (rad/s),a1 (rad/s^2),a2 (rad/s^2)
0.4643471496767773,1.4886565309716953,3.429289487996549,-2.89735889780985,-4.80014423250424,-2.3341895072744756
0.47923371498649425,1.440655088646653,3.4003158990184508,-2.9207007928825948,-4.932120319802859,-2.759364519991684
0.4936402658729608,1.3913338854486244,3.3711088910896247,-2.948294438082512,-5.011895272388773,-3.113896959610314
0.507553604727447,1.3412149327247367,3.3416259467087994,-2.979433407678615,-5.040552233934561,-3.4013134062752086
0.5209657540546944,1.290809410385391,3.3118316126320133,-3.0134465417413674,-5.020953945364672,-3.6274695052130723
0.5338738481585483,1.2405998709317443,3.2816971472145995,-3.049721236793498,-4.957220996756635,-3.799810514054071
0.5462798468678658,1.191027660964178,3.2511999348466647,-3.0877193419340387,-4.854225558139562,-3.926663491515989
0.5581901234775075,1.1424854053827822,3.2203227414273243,-3.1269859768491988,-4.717145958510592,-4.01662466358505
0.5696149775313354,1.0953139457976764,3.1890528816588324,-3.1671522234850493,-4.551107709670337,-4.0780764724708005
0.5805681169893121,1.049802868700973,3.1573813594239817,-3.207932988209757,-4.360919194912813,-4.11884368341045
0.5910661456763219,1.006193676751845,3.125302029541884,-3.2491214250438616,-4.150897323836297,-4.145979585321491
0.6011280824438403,0.9646847035134819,3.0928108152914455,-3.2905812208970766,-3.924770471159757,-4.165662327453894
0.6107749294789752,0.9254369988018843,3.059905003082475,-3.3322378441716154,-3.6856423785115733,-4.183176794776112
0.620029299466994,0.8885805750167686,3.0265826246407586,-3.3740696121193765,-3.436000295679493,-4.202957431501138
0.6289151052171618,0.8542205720599736,2.9928419285195647,-3.416099186434388,-3.177752276878653,-4.228670282580097
0.6374573109377615,0.8224430492911871,2.9586809366552207,-3.458385889260189,-2.9122812048304043,-4.263316731729116
0.6456817414306734,0.793320237242883,2.9240970777626187,-3.50101905657748,-2.640506044911695,-4.309345896074707
0.6536149438031021,0.7669151767937661,2.889086887196844,-3.544112515538227,-2.3629435672169983,-4.368766737709139
0.6612840955710398,0.7432857411215961,2.8536457620414617,-3.587800182915318,-2.0797660784754175,-4.443254354371902
0.6687169529822558,0.7224880803368419,2.8177677602123086,-3.632232726459037,-1.7908525014494603,-4.53424753012097
0.6759418337856242,0.7045795553223473,2.7814454329477183,-3.6775752017602468,-1.4958314477403205,-4.643036514526667
0.6829876293388477,0.689621240844944,2.744669680930116,-3.7240055669055137,-1.1941158216035392,-4.770841273668318
0.6898838417472971,0.6776800826289087,2.7074296252610606,-3.771713979642197,-0.8849290556383373,-4.918881254628279
0.6966606425735862,0.6688307920725253,2.669712485464639,-3.8209027921884795,-0.5673234009070819,-5.088438155122068
0.7033489504943115,0.6631575580634544,2.631503457542754,-3.8717871737397003,-0.24019085081064262,-5.280913397297434
0.709980526074946,0.660755649555348,2.592785585805357,-3.9245963077126746,0.09773266598489179,-5.497882048908658
0.7165880825704994,0.661732976215197,2.55353962272823,-3.9795751282017613,0.44786917977510515,-5.741144868378513
0.7232054123326515,0.6662116680129481,2.5137438714462124,-4.036986576885546,0.8118060096283085,-6.01277999884633
0.729867529012781,0.6743297281092312,2.473374005677357,-4.09711437687401,1.1913078239689945,-6.3151955997587645
0.7366108262938733,0.6862428063489211,2.432402861908617,-4.160266332871597,1.5883325747522237,-6.651184352554745
0.7434732543573626,0.7021261320964434,2.390800198579901,-4.226778176397144,2.0050501244594066,-7.023980240804113
0.750494515678327,0.7221766333410374,2.3485324168159294,-4.297017978805186,2.4438617839724373,-7.43731716125742
0.7577162820117375,0.7466152511807618,2.3055622370278774,-4.37139115041776,2.907417935991982,-7.895487563511248
0.7651824345235451,0.7756894305406816,2.2618483255236996,-4.450346026052872,3.398629172747728,-8.403397103220847
0.7729393288289519,0.8096757222681589,2.217344865263171,-4.534379997085081,3.9206635131203145,-8.966607676210756
0.7810360860516334,0.848882357399362,2.1720010652923203,-4.624046073847188,4.476917618927797,-9.591355286932165
0.789524909625627,0.89365153358864,2.1257606045538484,-4.719959626716509,5.070942441893805,-10.28451955561214
0.7984614249615134,0.944360958007578,2.0785610082866834,-4.822804822272631,5.706291713550415,-11.05350597343944
0.8079050345415891,1.0014238751430822,2.0303329600639572,-4.933339882007026,6.386242480136318,-11.905976598800944
0.8179192732930199,1.0652862999444452,1.980999561243887,-5.052399647995035,7.113306368061797,-12.849324005292484
0.8285721362924644,1.1364193636250632,1.9304755647639367,-5.18089288804796,7.888402284894874,-13.88971824565886
0.839936329928715,1.215303386474012,1.8786666358834572,-5.319790070504548,8.709487169809512,-15.030454974040683
0.8520893637934551,1.302398258172107,1.8254687351784118,-5.470094620244955,9.569330610936568,-16.26917902877698
0.8651133463751762,1.3980915642814726,1.7707677889759623,-5.632786410532725,10.451963026298282,-17.593337801810378
0.8790942620179909,1.5026111945444554,1.714439924870635,-5.808719788550829,11.327132410412116,-18.972938171202326
0.8941203739634355,1.6158825186485766,1.6563527269851268,-5.998449170262853,12.141930206702858,-20.349414386133766
0.9102791991499213,1.7373018207156052,1.5963682352824984,-6.201943314124191,12.808790648496199,-21.619425388262126
0.9276522173570774,1.8653897272005673,1.5343488021412566,-6.418137568006812,13.189842239600399,-22.61338338247118
0.9463061146290831,1.9972881495965713,1.4701674264611884,-6.644271401831523,13.08018136152003,-23.071962434902904
0.9662789961250489,2.128089963211772,1.4037247124428731,-6.8749910261805525,12.198782681363433,-22.632157654094605
0.9875598957571666,2.250077790025406,1.3349748021810677,-7.101312602721499,10.206629029426695,-20.849346811479833
1.0100606736574207,2.352144080319673,1.2639616761538526,-7.309806070836297,6.782880736883515,-17.297390188647448
1.0335821144606174,2.4199728876885085,1.1908636154454897,-7.4827799727227715,1.7822068351754452,-11.778656493729502
1.0577818433375026,2.4377949560402628,1.116035815718262,-7.600566537660066,-4.563587255987894,-4.594141631595373
1.0821597928979052,2.392159083480384,1.0400301503416614,-7.646507953976021,-11.544945780395182,3.3240031093789564
1.106081383732709,2.276709625676432,0.9635650708019011,-7.613267922882231,-18.15011313192753,10.65426043824169
1.1288484799894734,2.0952084943571565,0.8874323915730788,-7.5067253184998135,-23.486673034560315,16.255656022734204
1.149800564933045,1.8603417640115534,0.8123651383880807,-7.344168758272471,-27.139102907959188,19.640451225785714
1.1684039825731605,1.5889507349319616,0.7389234508053559,-7.1477642460146145,-29.20051861628302,20.99967268552161
1.1842934899224802,1.2969455487691315,0.6674458083452097,-6.937767519159398,-30.049954401127383,20.89002254348581
1.1972629454101715,0.9964460047578576,0.5980681331536157,-6.72886729372454,-30.11209574698084,19.908382950969603
1.20722740545775,0.6953250472880492,0.5307794602163703,-6.529783464214844,-29.728201579737682,18.523944388117528
1.2141806559306305,0.3980430314906724,0.4654816255742219,-6.344544020333668,-29.12749629743819,17.04716181329625
1.2181610862455372,0.1067680685162905,0.4020361853708852,-6.174072402200705,-28.44591249693934,15.660486786635639
1.2192287669307,-0.1776910564531029,0.34029546134887817,-6.017467534334349,-27.75513971161301,14.460438445242493
1.217451856366169,-0.455242453569233,0.2801207860055347,-5.872863149881924,-27.087014761162937,13.49153421668884
1.2128994318304767,-0.7261126011808623,0.22139215450671546,-5.737947807715036,-26.450354916864548,12.768953335793952
1.205638305818668,-0.9906161503495078,0.16401267642956507,-5.610258274357097,-25.841549100861048,12.292243370934466
1.195732144315173,-1.2490316413581182,0.10791009368599411,-5.487335840647752,-25.250911270012367,12.053075991753575
1.1832418279015917,-1.501540754058242,0.053036735279516585,-5.366805080730217,-24.6664059549193,12.039379359484688
1.1682264203610093,-1.7482048136074348,-0.0006313155277855795,-5.24641128713537,-24.07582170614196,12.237377258902644
1.1507443722249349,-1.9889630306688544,-0.05309542839913928,-5.124037514546344,-23.468052187120602,12.632469862280221
1.1308547419182464,-2.2236435525400604,-0.10433580354460271,-4.997712815923541,-22.8338695336308,13.20950785512466
1.1086183063928459,-2.4519822478763684,-0.15431293170383814,-4.865617737372294,-22.16640540300343,13.952781092918043
1.0840984839140821,-2.6736463019064027,-0.20296910907756108,-4.726089926443114,-21.461455042960598,14.845908551935377
1.057362020895018,-2.8882608523360087,-0.2502300083419922,-4.57763084092376,-20.71766215974796,15.871738646680175
1.028479412371658,-3.0954374739334884,-0.2960063167512298,-4.418913454456958,-19.93661048302003,17.012323398289777
0.9975250376323231,-3.294803578763689,-0.34019545129579937,-4.24879022047406,-19.12283155372838,18.249001939208327
0.9645770018446862,-3.4860318943009725,-0.38268335350053995,-4.066300201081977,-18.28373138853857,19.562610199338277
0.9297166829016765,-3.6688692081863583,-0.42334635551135974,-3.870674099088594,-17.429437686737874,20.9338198694495
0.893027990819813,-3.843163585053737,-0.4620530965022457,-3.661335900394099,-16.572571857906254,22.343598626523168
0.8545963549692757,-4.0088893036328,-0.49866645550618666,-3.4378999141288675,-15.727954781258191,23.773774167756077
0.8145074619329477,-4.166168851445382,-0.5330454546474753,-3.2001621724513067,-14.912260638311848,25.207676585955245
0.7728457734184938,-4.3152914578285,-0.5650470763719884,-2.9480854065917543,-14.143638332637867,26.630827115090874
0.7296928588402088,-4.456727841154878,-0.5945279304379059,-2.6817771354408455,-13.44132392039591,28.031636404676853
0.68512558042866,-4.591141080358837,-0.6213457017923143,-2.4014607713940768,-12.825269085462418,29.40207211761918
0.6392141696250716,-4.719393771213461,-0.6453603095062551,-2.107440050217885,-12.315808816882653,30.738253063817655
0.592020231912937,-4.842551859382287,-0.666434710008434,-1.8000575195797084,-11.933384541176691,32.04092348655983
0.5435947133191141,-4.961885704794054,-0.6844352852042311,-1.4796482847141101,-11.69832472080558,33.31575293223472
0.4939758562711736,-5.07886895200211,-0.6992317680513722,-1.146490755391763,-11.630659500306084,34.57338784164118
0.4431871667511525,-5.195175547005171,-0.7106966756052898,-0.8007568769753511,-11.749902518336791,35.82913919988068
0.3912354112811008,-5.312674572188539,-0.7187042443750433,-0.44246548497654437,-12.07465909238284,37.10210660169604
0.33810866555921537,-5.433421163112367,-0.7231288992248087,-0.07144441895958392,-12.621793244289764,38.413379235222195
0.2837744539280917,-5.559639095555265,-0.7238433434144046,0.312689373392638,-13.404667142533555,39.78266161564733
0.22817806297253906,-5.6936857669806,-0.7207164496804782,0.7105159895491113,-14.42958969749365,41.22215365127416
0.17124120530273307,-5.837981663955537,-0.7136112897849871,1.122737526061853,-15.688976475748191,42.72563286960635
0.1128613886631777,-5.994871428713019,-0.7023839145243685,1.5499938547579166,-17.148712653624212,44.249282354996396
0.05291267437604751,-6.166358555249261,-0.6868839759767894,1.9924866783078805,-18.72579991900959,45.6788624895937
-0.008750911176445095,-6.353616554439356,-0.6669591091937106,2.4492753032038177,-20.251047865733884,46.77605965737023
-0.07228707672083866,-6.556127033096695,-0.6424663561616725,2.91703589977752,-21.412582532231355,47.098471246154396
-0.1378483470518056,-6.770252858419009,-0.6132959971638973,3.388020612239064,-21.686067294056198,45.902324074915555
-0.2055508756359957,-6.9871135313595705,-0.5794157910415066,3.8470438529882194,-20.29141049733718,42.08534097511343
-0.2754220109495914,-7.1900276363329425,-0.5409453525116245,4.267897262739353,-16.28807690672572,34.329643271795284
-0.3473222873129208,-7.3529084054002,-0.49826637988423095,4.611193695457306,-8.990248767493057,21.70135682311202
-0.4208513713669228,-7.44281089307513,-0.4521544429296579,4.828207263688427,1.2640143052211434,4.752032944746935
-0.4952794802976741,-7.430170750022919,-0.4038723702927736,4.875727593135896,12.563872156029491,-13.69952484717646
-0.5695811877979033,-7.304532028462624,-0.35511509436141464,4.738732344664132,22.113419448951493,-29.55493401750443
-0.6426265080825296,-7.083397833973109,-0.3077277709147733,4.443183004489088,27.983379502091058,-39.95140150220938
-0.7134604864222607,-6.8035640389521985,-0.26329594086988245,4.043668989466994,30.084074999069408,-44.67712739608404
-0.7814961268117827,-6.502723288961504,-0.2228592509752125,3.5968977155061537,29.53405720471245,-45.29082504603523
-0.8465233597013977,-6.207382716914379,-0.18689027382015097,3.1439894650458013,27.59485505997157,-43.5982491314649
-0.9085971868705415,-5.931434166314664,-0.15545037916969295,2.7080069737311523,25.15403194550368,-40.89583477048029
-0.9679115285336881,-5.679893846859627,-0.12837030943238142,2.2990486260263494,22.700339624077362,-37.91800430845092
-1.0247104670022844,-5.452890450618853,-0.10537982317211793,1.9198685829418403,20.45671730153091,-35.017538191256584
-1.079239371508473,-5.248323277603545,-0.08618113734269953,1.5696932010292743,18.501234813628553,-32.3349220546685
-1.1317226042845083,-5.063310929467259,-0.07048420533240679,1.2463439804825893,16.842274770668837,-29.90552718964769
-1.182355713579181,-4.894888181760571,-0.0580207655275809,0.9472887085861124,15.458541381011967,-27.71774326693253
-1.2313045953967867,-4.7403027679504515,-0.048547878441719775,0.6701112759167871,14.318553665023295,-25.74204256722884
-1.2787076230762913,-4.597117231300219,-0.041846765682551905,0.4126908502444987,13.389464844990083,-23.944668917730525
-1.3246787953892936,-4.463222582850318,-0.03771985718010692,0.17324416106719345,12.640663032095258,-22.293644066386005
-1.3693110212177968,-4.336815952529365,-0.03598741556943498,-0.04969227959666661,12.044940564712228,-20.761074301873844
-1.4126791807430905,-4.216366546882243,-0.036484338365401645,-0.25730302261540505,11.578596958686541,-19.3237389538615
-1.454842846211913,-4.100580577295378,-0.039057368591555695,-0.4505404121540201,11.221123878454225,-17.962923256430685
-1.4958486519848668,-3.9883693385108354,-0.043562772713095894,-0.6301696447183269,10.954769539811837,-16.66395297432505
-1.5357323453699752,-3.878821643112717,-0.049864469160279166,-0.7968091744615774,10.764111035869917,-15.415641799822852
-1.5745205618011022,-3.771180532754018,-0.05783256090489494,-0.9509655924598059,10.635683243659535,-14.209744057264569
-1.6122323671286425,-3.6648237003174224,-0.067342216829493,-1.0930630330324516,10.557676314442478,-13.040449463468317
-1.6488806041318167,-3.559246937172998,-0.07827284715981751,-1.2234675276671347,10.51969786385468,-11.903931354121099
-1.6844730735035467,-3.454049958534451,-0.09050752243648887,-1.3425068412083456,10.512589966577533,-10.797949024461595
-1.7190135730888911,-3.3489240588686755,-0.10393259084857231,-1.4504863314529617,10.528289645211316,-9.721500848431493
-1.752502813677578,-3.243641162416562,-0.11843745416310193,-1.5477013399372765,10.559722174336104,-8.674523830388702
-1.7849392253017435,-3.1380439406732012,-0.1339144675624747,-1.6344465782411635,10.600717973349896,-7.657635387656935
-1.8163196647084756,-3.032036760939702,-0.15025893334488633,-1.7110229321177328,10.645945552562978,-6.671913627275753
-1.8466400323178727,-2.9255773054140723,-0.16736916266606366,-1.7777420683904903,10.690854633523623,-5.718712820399241
-1.8758958053720134,-2.818668759078836,-0.18514658334996856,-1.8349291965944827,10.73162506398158,-4.799511082250318
-1.9040824929628017,-2.71135250843902,-0.2034958753159134,-1.882924307416986,10.765118440704539,-3.915787430684935
-1.9311960180471919,-2.6037013240319746,-0.22232511839008326,-1.9220821817238352,10.78883042648171,-3.0689254602535856
-1.9572330312875117,-2.4958130197671577,-0.24154594020732162,-1.952771436326371,10.800842606990399,-2.2601408784542905
-1.9821911614851833,-2.3878045936972536,-0.26107365457058535,-1.975372845110914,10.799773394985017,-1.4904301482540607
-2.006069207422156,-2.2798068597474033,-0.28082738302169447,-1.9902771465934546,10.784727975333686,-0.7605374961854924
-2.0288672760196302,-2.1719595799940663,-0.300730154487629,-1.9978825215553095,10.755247619343228,-0.0709375965814489
-2.0505868718195708,-2.064407103800634,-0.32070897970318213,-1.998591897521124,10.711258905873184,0.5781686624948136
-2.0712309428575773,-1.957294514741902,-0.34069489867839337,-1.992810210896176,10.653023494502953,1.1868477875515346
-2.0908038880049964,-1.8507642797968726,-0.3606230007873551,-1.9809417330206607,10.581089125278249,1.7554189416015298
-2.109311530802965,-1.7449533885440902,-0.3804324181175617,-1.9633875436046453,10.49624249069314,2.2844329330793562
-2.126761064688406,-1.6399909636371588,-0.4000662935536081,-1.9405432142738517,10.399464556166981,2.774646779218262
-2.1431609743247773,-1.535996318075489,-0.4194717256963466,-1.912796746481669,10.291888810102478,3.2269954552684257
-2.158520937505532,-1.4330774299744642,-0.4385996931611633,-1.8805267919289848,10.174762815656958,3.642562203367534
-2.1728517118052766,-1.3313298018178945,-0.45740496108045314,-1.8441011698953094,10.049413323074097,4.022548543258507
-2.1861650098234557,-1.2308356685871535,-0.4758459727794062,-1.8038756844627244,9.917215090987995,4.368244907336047
-2.1984733665093272,-1.1316635176772736,-0.49388472962403346,-1.760193235389364,9.779563462734027,4.681002619154451
-2.2097900016861,-1.0338678830499333,-0.5114866619779271,-1.7133832091978194,9.637850652910865,4.962207750618972
-2.2201286805165994,-0.9374893765208246,-0.5286204940699053,-1.6637611316916296,9.493445622367114,5.213257230451297
-2.2295035742818077,-0.8425549202971535,-0.5452581053868216,-1.6116285593871167,9.347677357423963,5.435537435948872
-2.237929123484779,-0.7490781467229138,-0.5613743909806928,-1.557273185027628,9.201821321574869,5.630405381451883
-2.245419904952008,-0.6570599335071652,-0.576947122830969,-1.5009691312131093,9.057088814511998,5.799172519494546
-2.25199050428708,-0.5664890453620453,-0.5919568141431002,-1.4429774060181637,8.914618952997417,5.94309109301688
-2.2576553947407003,-0.4773428558320711,-0.6063865882032818,-1.383546495087995,8.775472979365034,6.063342917534411
-2.262428823299021,-0.38958812603842075,-0.6202220531541618,-1.322913065912651,8.640630604650683,6.161030428843869
-2.266324704559405,-0.3031818199919139,-0.6334511838132884,-1.2613027616242123,8.510988102769806,6.237169802593012
-2.269356522759324,-0.21807193896421584,-0.6460642114295305,-1.1989310635982822,8.387357888083331,6.292685934743869
-2.271537242148966,-0.13419836008338254,-0.6580535220655134,-1.1360042042508436,8.27046932949662,6.328409064546623
-2.2728792257498,-0.05149366678841634,-0.6694135641080218,-1.0727201136053774,8.160970578457027,6.345072822166044
-2.273394162417684,0.030116038996153935,-0.6801407652440755,-1.009269385383717,8.059431214568678,6.343313489773902
-2.2730930020277222,0.11071035114184072,-0.6902334590979127,-0.9458362504859779,7.966345539945509,6.32367027613417
-2.271985898516304,0.19037380654129582,-0.6996918216027724,-0.8825995477246361,7.882136380995776,6.286586419057867
-2.270082160450891,0.26919517035125357,-0.7085178170800188,-0.8197336835340574,7.80715928339101,6.232410946383923
-2.2673902087473787,0.3472667631851637,-0.7167151539153593,-0.7574095740702181,7.741707012019195,6.161400943334713
-2.2639175411155272,0.42468383330535564,-0.7242892496560616,-0.695795564636871,7.686014292417294,6.0737241913569155
-2.259670702782474,0.5015439762295286,-0.7312472053024303,-0.6350583227233019,7.64026275332285,5.969462060199883
-2.2546552630201786,0.5779466037627571,-0.7375977885296633,-0.5753637021213031,7.6045860514941905,5.8486125504453295
-2.248875796982551,0.653992464277699,-0.7433514255508763,-0.5168775766168497,7.579075179832022,5.711093397530105
