th1 (rad),w1 (rad/s),th2 (rad),w2 (rad/s)
4.017527060292441,2.5173683471589827,4.240360573485314,2.8000876609555325
4.042700743764031,2.609294707079237,4.2683614500948694,2.7837129459293264
4.0687936908348235,2.70414608494357,4.296198579554162,2.7645293484994506
4.095835151684259,2.8019299179008716,4.323843873039157,2.742411467088785
4.123854450863268,2.9026348707567373,4.351267987710044,2.7172622804329354
4.152880799570836,3.006227644082401,4.378440610514374,2.6890203397158396
4.18294307601166,3.11264909454066,4.405330813911532,2.6576683482543384
4.2140695669570665,3.221809529877879,4.431907497394075,2.6232433135681124
4.246287662255845,3.3335830366954067,4.458139930529756,2.585848441759419
4.279623492622799,3.4478007081547495,4.483998414947351,2.5456669036581054
4.314101499704347,3.564242669642296,4.509455083983932,2.502977522947873
4.3497439264007705,3.6826288643866087,4.534484859213411,2.458172301329773
4.386570215044636,3.802608672010739,4.559066582226708,2.4117754840519345
4.424596301764743,3.9237496064415653,4.583184337067228,2.3644635587234357
4.4638337978291585,4.0455255894870685,4.606828972654462,2.317085152391749
4.504289053724029,4.1673056296819455,4.6299998241783795,2.2706792396363054
4.545962110020848,4.288344143522156,4.652706616574743,2.2264894171811496
4.588845551456069,4.4077746002470635,4.674971510746554,2.1859713023608327
4.63292329745854,4.524608572042796,4.696831223770162,2.1507895028865116
4.678169383178968,4.6377424979774755,4.718339118799027,2.122800290994743
4.724546808158743,4.745974345883105,4.7395671217089745,2.104016371777876
4.772006551617574,4.848031693788436,4.760607285426754,2.0965512553967742
4.8204868685554585,4.942611422110108,4.781572797980721,2.102542927231853
4.86991298277656,5.028429239430644,4.80259822725304,2.124059716624029
4.9201972751708665,5.104274941784479,4.823838824419281,2.1629950633403987
4.971240024588711,5.169067189094427,4.845468775052685,2.2209614128281574
5.022930696479656,5.22190039915153,4.867678389180966,2.2991956145298875
5.075149700471171,5.2620767399469495,4.890670345326265,2.3984879556091037
5.127770467870641,5.289118360875769,4.914655224882356,2.519143948462921
5.180661651479398,5.302758542178984,4.939846664366986,2.660982743318073
5.233689236901188,5.302914419589206,4.966456491800166,2.823369931111158
5.28671838109708,5.289647236080038,4.994690191111277,3.0052772266449397
5.3396148534578805,5.263117843965847,5.024742963377727,3.205358394273526
5.392246031897539,5.223545176376262,5.056796547320462,3.4220302603836465
5.444481483661302,5.171173970446572,5.091016849924299,3.653549315943344
5.4961932233657675,5.106255844880203,5.127552343083732,3.8980772656722964
5.547255781814569,5.0290456227793445,5.166533115740455,4.153731871583649
5.597546238042363,4.939813046942454,5.208070434456292,4.418621794103111
5.646944368511788,4.838868974255367,5.252256652397323,4.690865492893625
5.6953330582543416,4.726604736898651,5.299165307326259,4.96859460923227
5.742599105623328,4.6035434578786365,5.348851253418582,5.2499418348634475
5.788634540202114,4.470402480148974,5.401350671767217,5.533012408674543
5.833338565003604,4.328166452014959,5.456680795853963,5.815837454559554
5.876620229523754,4.178170692483079,5.514839170399558,6.096306831470465
5.918401936448585,4.022193813787324,5.575802238714262,6.372079598601238
5.958623874586458,3.8625566026249047,5.639523034700274,6.640472424549139
5.997249440612706,3.7022200588035035,5.705927758945766,6.898331382205935
6.034271641200742,3.544868408430081,5.774911072767825,7.141901780826508
6.069720325285043,3.394952445927252,5.84633009057609,7.36672469622626
6.103669849744315,3.2576558668539732,5.919997337538352,7.567606437551016
6.1362464084128545,3.1387367713657217,5.995673401913862,7.738722863087139
6.167633776126512,3.0441975060491977,6.073060630544734,7.873922382263811
6.1980757511870035,2.9797613995809975,6.151799854367372,7.967262728046462
6.2278733651828135,2.9501938364794627,6.231472481647836,8.01374476075252
6.257375303547608,2.958588378615446,6.311609929255361,8.010102617836727
6.2869611873337625,3.005807776839944,6.391710955433728,7.955422447330337
6.317019265102162,3.0902693851024723,6.471265179907031,7.851362426565474
6.347921958953187,3.2081663914627576,6.549778804172686,7.701869999078339
6.3800036228678145,3.3540597225610114,6.626797504163469,7.512486126425801
6.413544220093424,3.521650447172669,6.701922365427727,7.289475405267841
6.448760724565151,3.704517247434726,6.774817119480406,7.039041287490436
6.485805897039499,3.89667168844125,6.84520753235531,6.7667909987924135
6.524772613923911,4.092884765246668,6.912875442343235,6.477485973465366
6.565701461576378,4.2888146068114645,6.977650302077889,6.17502206106231
6.608589607644492,4.480997466537052,7.039400522688512,5.862550748173544
6.653399582309863,4.666762481843259,7.098026030170247,5.542661719226802
6.700067207128296,4.844113917790927,7.153452647362514,5.2175729410502285
6.748508346306205,5.011606388575878,7.205628376773016,4.889299897296891
6.798624410191964,5.168224858688533,7.254521375745985,4.559793813646144
6.85030665877885,5.313272981722682,7.300119313882447,4.231049265089022
6.903439388596077,5.446269388899694,7.342429806533337,3.9051863329810557
6.957902082485074,5.566850437314866,7.381481669863148,3.5845134904878937
7.013570586858222,5.674678589786336,7.4173268047680265,3.271576020328363
7.070317372756086,5.769357413050924,7.4500425649713105,2.969191741850757
7.128010946886595,5.850356863977229,7.479734482389818,2.680471485432914
7.186514515526367,5.916955885837954,7.506539197244147,2.4088164005425257
7.245684074384747,5.96821293799088,7.530627361249572,2.1578785105382186
7.305366203764656,6.00297793476001,7.552206146354955,1.9314665013213745
7.365395983112256,6.0199593209604805,7.571520811368169,1.7333783576134094
7.425595576321861,6.017855086223477,7.588854594944303,1.567149936384122
7.485774127184095,5.995544147258188,7.604526094308144,1.4357271234928959
7.545729568656677,5.952314921637821,7.618883365543073,1.3410983171567397
7.605252717873055,5.888086278758528,7.632294348714641,1.2839556967827581
7.664133580660641,5.8035629134134705,7.645133905682469,1.263472359506709
7.722169209794775,5.700273853887872,7.657768629277536,1.277271231302067
7.779171948333654,5.580472717058399,7.670541341590557,1.3216157507828432
7.8349766755042385,5.446920935416387,7.683757499098385,1.3917874549960483
7.889445884858402,5.302610259594269,7.697675373648345,1.4825620340848602
7.942471987454344,5.150491835007094,7.712500993989194,1.5886781033229047
7.9939769058044154,4.993264326865276,7.728387775022424,1.7052148670696536
8.043909549073069,4.833244983613917,7.74543992369312,1.8278382889605098
8.092241998909207,4.672320540085695,7.763718306582725,1.9529172652452969
8.138965204310065,4.511958657341294,7.783247479235178,2.077537397675009
8.184084790883478,4.353256082424993,7.8040228532119285,2.199448374035927
8.227617351707728,4.1970029255244015,7.826017336952288,2.3169772771430357
8.269587380962973,4.0437487200109326,7.849187109723718,2.4289312907783223
8.310024868163081,3.8938620769038983,7.873476422631501,2.534504133383632
8.348963488932121,3.7475803783431556,7.898821463965337,2.633193396392225
8.386439292715552,3.6050488782175605,7.925153397929259,2.7247312497061493
8.422489781497728,3.4663501332543967,7.95240071042632,2.8090282974217717
8.457153282830271,3.3315253315284536,7.980490993400538,2.8861290926846306
8.490468536145556,3.2005892018988713,8.009352284327385,2.9561773947822627
8.522474428164545,3.073540042259818,8.038914058275207,3.0193892768873947
8.553209828587143,2.950366156792136,8.069107951044082,3.076032420537109
8.582713490155063,2.8310497288019687,8.099868275249452,3.1264102230315616
8.611023987443083,2.715568916577278,8.131132377479767,3.170849626188282
8.638179676608855,2.603898759621263,8.16284087374165,3.2096918195701507
8.664218664205068,2.496011323226703,8.194937791937353,3.243285170284055
8.689178777437334,2.391875386468663,8.227370643640192,3.2719798869138526
8.71309753130202,2.291455886239266,8.26009044250933,3.2961240434041534
8.736012090164413,2.194713261800468,8.293051682943371,3.3160606769874774
8.757959222782418,2.101602795079509,8.326212289713245,3.3321257392719374
8.778975250733213,2.012074007104559,8.359533547105965,3.3446467270562033
8.799095990804258,1.926070147007952,8.392980014376526,3.3539418538528816
8.818356692274337,1.8435277941210682,8.426519432915056,3.3603196479940185
8.836791970215547,1.7643765836852292,8.460122629394997,3.3640788812288838
8.8544357360524,1.688539060932388,8.493763418207285,3.365508744906729
8.871321126661725,1.6159306654466257,8.527418505656353,3.3648892006672364
8.88748043331619,1.5464598467842603,8.561067397663026,3.3624914401716572
8.902945031784032,1.4800283125039249,8.594692312064742,3.3585783946628514
8.917745314909071,1.416531410402903,8.628278096011371,3.3534052407114983
8.9319106290131,1.3558586473719325,8.661812148418486,3.3472198539097486
8.945469215486819,1.2978943474819697,8.695284346957584,3.3402631679147805
8.95844815896164,1.24251845142078,8.72868697863673,3.3327694024208725
8.970873343475846,1.1896074580201097,8.76201467266094,3.324966130547751
8.982769418056048,1.1390355062656747,8.795264333966417,3.317074163873443
8.994159773118705,1.090675592864052,8.828435075605151,3.3093072419090936
9.005066529047346,1.0444009162410615,8.861528148024242,3.3018715221095687
9.015510538209757,1.000086332931531,8.894546863245337,3.2949648763428185
9.025511401539072,0.957609906921745,8.927496512008764,3.288776009828222
9.03508750060829,0.9168545269040929,8.960384272107046,3.283483428561624
9.044256045877331,0.87770956091095,8.993219106392662,3.279254290791807
9.053033141486441,0.8400725127390342,9.02601164930058,3.2762431867966577
9.061433866613832,0.8038506402841206,9.058774081168547,3.2745908986197265
9.069472373016673,0.7689624926963758,9.091519990154744,3.274423197171077
9.077161997943637,0.7353393214382057,9.124264222126454,3.275849737790921
9.08451539115802,0.702926320155312,9.157022719504363,3.278963116668292
9.091544654359572,0.6716836500022653,9.189812350671046,3.2838381490854966
9.098261490859594,0.6415872108962026,9.2226507321619,3.2905314260646046
9.104677362968555,0.6126291252387127,9.255556046422546,3.299081198455274
9.110803654220943,0.5848179089787339,9.288546858407098,3.3095076267873416
9.11665183331073,0.5581783153796759,9.321641934674972,3.321813421469136
9.122233616464527,0.5327508492110297,9.354860068889662,3.3359848815405773
9.127561124956637,0.5085909628037804,9.388219917705069,3.3519933218736213
9.132647034584675,0.4857679597626515,9.421739850923805,3.3697968594359344
9.137504714182302,0.46436364619191484,9.455437819518163,3.3893425102460255
9.142148350644222,0.44447078200925205,9.489331244620624,3.410568531373618
9.146593058464314,0.4261913952120783,9.52343692993436,3.4334069282336817
9.150854972416434,0.409635028847577,9.557770999216698,3.457786037794307
9.15495132270491,0.39491699319187556,9.592348859594642,3.483633094139634
9.15890049263683,0.382156693900195,9.627185190536037,3.510876684575832
9.162722059575833,0.37147610072092835,9.662293957381795,3.539449012024161
9.166436820583042,0.3629984112915682,9.697688447502037,3.5692878920908244
9.170066804695958,0.3568469514588935,9.733381326422945,3.6003384296994785
9.173635274210547,0.3531443386621151,9.76938471071994,3.632554338924261
9.177166717597167,0.35201191946741267,9.805710254109183,3.665898888932372
9.18068683679184,0.3535694775712768,9.842369242998506,3.70034547707984
9.184222531567553,0.35793519552449854,9.879372697769305,3.735877845819954
9.187801883522798,0.3652258427951384,9.916731476227506,3.772489972204505
9.19145414195075,0.3755571549693455,9.954456375949551,3.810185666870411
9.195209713500443,0.38904436392983227,9.992558232618254,3.8489779234433303
9.19910015713974,0.4058028365160694,10.031048011852688,3.8888880595655775
9.203158185504902,0.42594877901631506,10.069936892448343,3.9299446878454343
9.207417673295065,0.4495999663116545,10.109236339326797,3.972182549655475
9.211913672958183,0.4768764569947562,10.148958164823352,4.015641237645619
9.21668243752813,0.5079012587625247,10.189114577199808,4.060363824803605
9.221761450115755,0.5428009113531168,10.229718215447845,4.106395409510388
9.227189459229287,0.5817059568901148,10.270782169542949,4.153781577789647
9.233006518798188,0.6247512694503436,10.312319985320846,4.202566776195037
9.239254031492692,0.672076216837798,10.354345653082795,4.252792581754332
9.24597479366107,0.7238246278751469,10.396873578900339,4.304495849242647
9.253213039939821,0.7801445380536269,10.439918537392765,4.357706710874702
9.261014485320358,0.8411876852233139,10.483495604501513,4.4124463993483545
9.26942636217259,0.9071087253351725,10.527620068494997,4.468724862101605
9.278497449425942,0.9780641363001221,10.572307317116014,4.526538132755731
9.288278090788943,1.0542107761038215,10.61757269844357,4.585865425152152
9.298820198549981,1.1357040597657644,10.663431352695092,4.646665916361342
9.310177239147638,1.2226957189807641,10.709898011858705,4.708875187837649
9.322404196337446,1.3153311088242519,10.756986763737082,4.772401298884294
9.335557507425689,1.413746028307456,10.804710776725925,4.837120474224919
9.349694967708762,1.5180630264712658,10.853081981468174,4.902872398259792
9.364875597973475,1.6283871738008524,10.902110705450772,4.969455123057433
9.381159469711484,1.7448012907471604,10.951805256681347,5.036619615825857
9.398607482618957,1.8673606417575455,11.002171452839605,5.104063994975473
9.417281089036532,1.9960871250592214,11.053212092789359,5.171427532220133
9.437241960287125,2.1309630159356914,11.10492636811156,5.238284531485549
9.458551590446481,2.271924354514899,11.157309213426416,5.304138233330748
9.48127083399163,2.4188541078325394,11.210350595759722,5.368414935231534
9.505459375069956,2.571575279238627,11.264034745112038,5.43045856185735
9.531175127862342,2.729844184448901,11.318339330730613,5.489525963069685
9.55847356970683,2.8933441602578407,11.37323459036131,5.544783257667869
9.58740701130941,3.0616800158546242,11.428682422937989,5.595303574076818
9.618023811467955,3.2343735738354726,11.484635458678756,5.640066560876969
9.65036754720631,3.4108606739720937,11.541036124287526,5.6779600458576365
9.684476153946031,3.5904900231914554,11.597815724746102,5.707784208080988
9.720381054177945,3.77252426631687,11.654893566826912,5.728258590289622
9.758106296841115,3.9561436215660377,11.712176152729809,5.7380322176224166
9.797667733056775,4.140452372330336,11.769556474906032,5.735697004012974
9.839072256780078,4.324488434670704,11.826913444946163,5.719804523228298
9.882317141126785,4.507236133185445,11.884111490178446,5.68888610265505
9.92738950245864,4.687642223429518,11.941000351204996,5.641476070937742
9.974265924692935,4.86463510468812,11.997415111914373,5.5761378607956384
10.022912275739817,5.0371470793335735,12.053176490522329,5.49149253805457
10.073283746533152,5.204139437662912,12.108091415902875,5.386249194184795
10.12532514090978,5.364630078336613,12.161953907844723,5.259236493135209
10.178971441693147,5.517723306735121,12.214546272776074,5.109434489030562
10.234148674760497,5.662641374366265,12.26564061766638,4.936005612033754
10.29077508850416,5.798757218322468,12.315000673786717,4.738323441896563
10.348762660687385,5.925627721870805,12.362383908205683,4.515997551241806
10.408018937906093,6.043026648957237,12.4075438837181,4.26889232339281
10.468449204395665,6.1509762295114125,12.450232806952028,3.9971372799285025
10.529958966690778,6.24977623535158,12.490204179751313,3.701126165639193
10.592456729044294,6.3400293566396435,12.527215441407705,3.38150192487192
10.65585702261069,6.4226618473246475,12.561030460656424,3.0391248506761546
10.720083641083935,6.498938831619993,12.591421709163185,2.675021648745748
10.785073029400134,6.570474403394945,12.618171925650643,2.290313915497308
10.850777773434084,6.639237712507759,12.641075064805616,1.886125474406959
10.917170150559162,6.707557567981468,12.659936319549685,1.463468941485331
10.984245726238976,6.778129599836698,12.674571008964538,1.0231125253102427
11.052027022237343,6.854031581891161,12.684802134217641,0.5654281274074227
11.120567338056254,6.938753989470797,12.690456415491715,0.09022109831205627
11.189954877950962,7.036254090635642,12.691358626474836,-0.40345945600968264
11.26031741885732,7.151042566586629,12.68732403191474,-0.9175326781238098
11.331827844523186,7.2883111051004565,12.678148705133502,-1.455123838481307
11.40471095557419,7.45410562645597,12.663597466748689,-2.0208279707344317
11.47925201183875,7.655537509886474,12.643389187041345,-2.6209829785747325
11.555807386937614,7.9009908457921885,12.617179357255598,-3.2638875270374337
11.634817295395536,8.200193406428308,12.584540481985224,-3.959770006562408
11.71681922945982,8.56379002280829,12.5449427819196,-4.719988511448437
11.802457129687902,9.00150001164233,12.497742896805116,-5.554152285072614
11.892472129804325,9.516692329691173,12.44220137395439,-6.462096063225395
11.987639053101237,10.092981612763975,12.377580413322136,-7.414516342003262
12.088568869228876,10.667326939565278,12.303435249902103,-8.314590751007659
12.195242138624529,11.097459091522598,12.220289342392027,-8.951983651756548
12.306216729539756,11.186157566630918,12.130769505874461,-9.038254637050363
12.418078305206064,10.848496669545511,12.040386959503957,-8.446012915579155
12.52656327190152,10.247029679797198,11.955926830348165,-7.4037244992256435
12.62903356869949,9.61775283326708,11.881889585355909,-6.250790400463398
12.725211097032162,9.081148318476743,11.819381681351274,-5.166569000850843
12.816022580216929,8.659612407427089,11.767715991342765,-4.190917499692222
12.9026187042912,8.339810057005426,11.725806816345843,-3.311276363918695
12.986016804861254,8.102053337921179,11.692694052706656,-2.5047586161507707
13.067037338240466,7.92869186602732,11.667646466545149,-1.7508097103263873
13.146324256900739,7.805387612869891,11.650138369441885,-1.0336603312284192
13.224378133029438,7.7205808501076705,11.639801766129601,-0.34204820874558894
13.301583941530515,7.664705845949027,11.636381284042145,0.3315562180599224
13.378230999990006,7.629538339540098,11.639696846222744,0.9916603809268274
13.454526383385407,7.607731620535315,11.649613450032012,1.640311920343735
13.53060369959076,7.5925203238020575,11.666016569235449,2.277545766764585
13.60652890282878,7.5775590618830275,11.688792026903094,2.9017647576886487
13.68230449344761,7.556865198480531,11.71780967447998,3.5100914153322598
13.757873145432415,7.524838225533046,11.752910588633302,4.09871191576652
13.833121527687744,7.476330301812486,11.793897707790967,4.663217894108983
13.90788483070587,7.40674444276679,11.840529886732057,5.198940174868952
13.981952275133537,7.312139773488615,11.892519288480747,5.70126205020381
14.055073672868422,7.189327613074979,11.949531908982785,6.165898513357661
14.126966948999172,7.0359474774000645,12.01119089411636,6.58913085736273
14.197326423773173,6.8505172684528395,12.077082202689988,6.967991287292177
14.265831596457701,6.632455800492627,12.14676211556291,7.300397397231714
14.332156154462627,6.382077736600591,12.219766089535227,7.585239773860768
14.395976931828633,6.10056111639322,12.295618487273835,7.822426930559225
14.456982542992565,5.789886814231202,12.373842756579426,8.012890746362423
14.514881411134876,5.452748677414046,12.453971664043051,8.158553877803273
14.569408897909017,5.092433769942003,12.535557202821083,8.262259679379302
14.620333235608438,4.712674491573113,12.618179799614877,8.327665987988134
14.66745998052417,4.317477975228502,12.701456459494759,8.359106826518845
14.710634760276454,3.910942076264379,12.785047527759948,8.361429934461796
14.749744181039098,3.497070207752445,12.868661827104566,8.339821790274826
14.784714883116623,3.0795982453731674,12.952060045007315,8.299634195812764
14.815510865570355,2.6618453308691885,13.035056386965442,8.24622675602331
14.842129318879046,2.2465969639673244,13.117518654525675,8.18483762138675
14.86459528851872,1.8360241524977159,13.199367030739543,8.120491229648193
