th1 (rad),w1 (rad/s),th2 (rad),w2 (rad/s),a1 (rad/s^2),a2 (rad/s^2)
0.8486728189169355,-0.5254438153577932,0.6149407276100662,-0.8790750702445137,-8.968042495407138,3.1344168494310036
0.8434183807633575,-0.6151242403118645,0.6061499769076211,-0.8477309017502037,-8.972572715476206,3.226997094026491
0.8372671383602389,-0.7048499674666265,0.5976726678901191,-0.8154609308099388,-8.96929692925837,3.3163236231070434
0.8302186386855727,-0.7945429367592103,0.5895180585820197,-0.7822976945788683,-8.957993962869093,3.401823838095641
0.8222732093179805,-0.8841228763879012,0.581695081636231,-0.7482794561979119,-8.938236047048445,3.4825410372789567
0.8134319805541015,-0.9735052368583856,0.5742122870742519,-0.7134540458251224,-8.909381618381738,3.5571248642123194
0.8036969281855176,-1.062599053042203,0.5670777466160006,-0.6778827971829992,-8.870567503746539,3.623821930479425
0.7930709376550956,-1.1513047280796682,0.5602989186441707,-0.641644577878205,-8.820701025722405,3.6804675975496886
0.7815578903742989,-1.2395117383368923,0.5538824728653886,-0.6048399019027081,-8.758453006360877,3.7244805570899904
0.7691627729909299,-1.327096268400501,0.5478340738463615,-0.5675950963318082,-8.682253142715952,3.7528625797804245
0.755891810306925,-1.4139187998276606,0.5421581228830434,-0.5300664705340039,-8.590289777057839,3.7622066032005597
0.7417526223086484,-1.499821697598239,0.5368574581777034,-0.49244440450199833,-8.480516668399138,3.748717168805487
0.726754405332666,-1.5846268642822303,0.5319330141326833,-0.45495723281394346,-8.350669945629445,3.708248028732679
0.7109081366898437,-1.6681335637385248,0.5273834418045439,-0.41787475252661666,-8.198298907973273,3.636362407630577
0.6942268010524584,-1.7501165528182576,0.5232046942792777,-0.3815111284503109,-8.020814615541019,3.528421744209579
0.6767256355242758,-1.830324698973668,0.5193895829947747,-0.34622691100821507,-7.815560116168472,3.3797085077112854
0.658422388534539,-1.9084803001353525,0.5159273138846925,-0.3124298259311022,-7.579905481015989,3.185587587102077
0.6393375855331855,-1.9842793549455124,0.5128030156253814,-0.2805739500600814,-7.311369352698241,2.941708467406569
0.6194947919837304,-2.0573930484724947,0.5099972761247806,-0.2511568653860157,-7.00776626178467,2.6442466712088244
0.5989208614990054,-2.1274707110903415,0.5074857074709205,-0.22471439867392748,-6.6673754646587255,2.2901776478334352
0.577646154388102,-2.1941444657369287,0.5052385634841812,-0.20181262219559312,-6.289122627130449,1.8775696333983998
0.5557047097307327,-2.257035692008233,0.5032204372622252,-0.18303692586160913,-5.872760754606312,1.4058746196114051
0.5331343528106504,-2.315763299554296,0.5013900680036091,-0.16897817966549508,-5.419032141046474,0.8761896224731228
0.5099767198151074,-2.3699536209647607,0.4997002862069541,-0.16021628344076386,-4.929789890305299,0.29145557599007565
0.4862771836054598,-2.4192515198678137,0.4980981233725465,-0.1573017276808631,-4.408057019305962,-0.34343974414076817
0.46208466840678164,-2.4633320900608733,0.49652510609573786,-0.16073612512227078,-3.858004367417369,-1.0216837267028918
0.4374513475061729,-2.501912133735047,0.4949177448445152,-0.1709529623892997,-3.284835986867469,-1.7347039008730432
0.41243222616882247,-2.534760493603722,0.4932082152206222,-0.18830000139803013,-2.6945818555591967,-2.472477437188363
0.38708462123278525,-2.5617063121593135,0.4913252152066419,-0.21302477576991377,-2.093810963249623,-3.2239670885867944
0.36146755811119213,-2.5826444217918096,0.48919496744894275,-0.24526444665578173,-1.489290478732657,-3.9776464668306604
0.33564111389327406,-2.597537326579136,0.48674232298238496,-0.2850409113240883,-0.8876259298060926,-4.722063377298852
0.3096657406274827,-2.6064135858771973,0.4838919138691441,-0.33226154509707684,-0.2949208271322131,-5.446384025579961
0.2836016047687107,-2.6093627941485193,0.4805692984181733,-0.3867253853528765,0.2835089954217167,-6.140864734513544
0.25750797682722554,-2.6065277041943022,0.47670204456464454,-0.44813403269801194,0.8433401028323456,-6.79721038186251
0.2314426997852825,-2.5980943031659787,0.47222070423766443,-0.5161061365166371,1.3813517570178178,-7.40879697340684
0.20546175675362272,-2.5842807855958005,0.46705964287249807,-0.5901941062507055,1.895441804981363,-7.970755408175355
0.17961894889766472,-2.5653263675459868,0.461157701809991,-0.669901660332459,2.384559712457182,-8.479930591456752
0.15396568522220486,-2.541480770421415,0.4544586852066664,-0.7547009662470265,2.8485760602984502,-8.934741882684158
0.1285508775179907,-2.5129950098184306,0.44691167554419614,-0.8440483850738681,3.288111183199094,-9.334976417402336
0.10342092741980641,-2.4801138979864397,0.43847119169345744,-0.9373981492478916,3.704345047172448,-9.681546661518354
0.07861978843994201,-2.443070447514715,0.4290972102009785,-1.034213615863075,4.098827061976909,-9.976239191858637
0.054189083964794854,-2.402082176894946,0.41875507404234774,-1.1339760077816614,4.473299647146435,-10.221475044116863
0.030168262195845397,-2.3573491804234816,0.4074153139645311,-1.23619075822283,4.829544201055488,-10.420094736391153
0.006594770391610581,-2.309053738412927,0.3950534063823028,-1.3403917055867416,5.169253496156261,-10.575174492548122
-0.016495766992518687,-2.257361203451364,0.3816494893264354,-1.4461434505122228,5.493930885276183,-10.689874934978787
-0.03906937902703233,-2.2024218945986025,0.36718805482131317,-1.5530421998620108,5.804814174781367,-10.767319805891573
-0.06109359797301835,-2.1443737528507887,0.3516576328226931,-1.6607153979209266,6.102820506593112,-10.810500008961819
-0.08253733550152624,-2.0833455477848575,0.3350504788434838,-1.7688203980105448,6.3885078908352195,-10.822197172396992
-0.10337079097937482,-2.019460468876505,0.31736227486337837,-1.8770423697345147,6.662048917084669,-10.804920706095585
-0.12356539566813987,-1.9528399797056586,0.2985918511660332,-1.9850915767954704,6.923212443427626,-10.76085267299495
-0.14309379546519646,-1.8836078552713824,0.2787409353980785,-2.09270010352542,7.171349568383855,-10.691795497299502
-0.16192987401791029,-1.8118943595875439,0.2578139343628243,-2.199618058498415,7.405380839016953,-10.599118448114323
-0.18004881761378572,-1.7378405511973742,0.23581775377784014,-2.3056092429795583,7.623782402375429,-10.483699901027274
-0.19742722312575947,-1.66160272717362,0.21276166134804456,-2.410446241989831,7.8245696784693,-10.345863596104095
-0.21404325039749567,-1.583357030388927,0.18865719892814625,-2.513904877950872,8.005278173333599,-10.185308541119122
-0.22987682070138493,-1.503304248655591,0.16351815014863752,-2.6157579633620633,8.162942344076852,-10.001033964104083
-0.24490986318794083,-1.4216748252148226,0.13736057051501688,-2.715768303003104,8.29407507827122,-9.79126294366683
-0.2591266114400891,-1.3387340744321103,0.11020288748498583,-2.8136809324397722,8.394652464235893,-9.553371193909689
-0.2725139521844102,-1.2547875497897514,0.08206607816058811,-2.9092146443788693,8.460111185001752,-9.283831078105134
-0.2850618276823077,-1.1701864379397338,0.05297393171679942,-3.002052955159921,8.48536906520631,-8.978185297003472
-0.29676369206170505,-1.0853327472876706,0.022953402165200212,-3.091834808129956,8.464882874166344,-8.631069659688489
-0.30761701953458176,-1.0006839185460072,-0.007964945916099347,-3.1781455047268405,8.392761003263171,-8.236309347478695
-0.31762385872004184,-0.9167563085133755,-0.03974640096336775,-3.2605085982016275,8.262951245610948,-7.787117018822454
-0.3267914218051756,-0.834126796057266,-0.07235148694538401,-3.338379768389852,8.06952423579368,-7.2764221397136755
-0.3351326897657483,-0.7534315536993292,-0.10573528462928253,-3.411143989786989,7.807069231801286,-6.69735644753127
-0.3426670053027416,-0.6753608613813163,-0.1398467245271524,-3.4781175542623015,7.471208578061648,-6.043907346270623
-0.34942061391655477,-0.6006487756006998,-0.1746279000697754,-3.538556627725008,7.059218398454077,-5.311726480977358
-0.35542710167256175,-0.530056591616159,-0.2100134663470255,-3.5916738925347813,6.570715279707478,-4.499043800142099
-0.3607276675887233,-0.46434943881908425,-0.2459302052723733,-3.636664330536202,6.008334361374377,-3.607591138727777
-0.36537116197691416,-0.40426609520534046,-0.28229684857773535,-3.67274024192348,5.378290232479052,-2.643392806218203
-0.3694138229289676,-0.35048319288054997,-0.3190242509969701,-3.699174169985662,4.690689916069922,-1.6172493324450927
-0.3729186548577731,-0.30357629371985073,-0.35601599269682677,-3.7153466633101133,3.9594709809052633,-0.5447433238503396
-0.3759544177949716,-0.26398158391079807,-0.3931694593299279,-3.720794096548617,3.2018784224436745,0.5543516396646434
-0.37859423363407957,-0.23196279968636133,-0.4303774002954141,-3.71525058015197,2.437472104725823,1.6572756431090574
-0.3809138616309432,-0.20758807863910309,-0.4675299060969338,-3.6986778237208795,1.6867573797070599,2.7399837982851345
-0.38298974241733424,-0.19072050484203248,-0.5045166843341425,-3.671277985738028,0.969625926584009,3.779102059440781
-0.3848969474657546,-0.1810242455761924,-0.5412294641915228,-3.63348696514362,0.3038487287889113,4.753822088791821
-0.38670718992151654,-0.1779857582883033,-0.577564333842959,-3.585948744255702,-0.29614361962695407,5.647428453461814
-0.38848704750439955,-0.18094719448457283,-0.6134238212855161,-3.529474459721084,-0.820025711101752,6.448240869136204
-0.39029651944924526,-0.18914745159559035,-0.6487185658827269,-3.464992051029722,-1.2618243345003297,7.149892332474503
-0.39218799396520115,-0.20176569494059365,-0.6833684863930242,-3.3934931277049767,-1.619691083970202,7.75100342392851
-0.3942056509146071,-0.21796260578029567,-0.7173034176700739,-3.3159830934656918,-1.8953210248206334,8.254412987090513
-0.39638527697241005,-0.236915816028502,-0.7504632486047308,-3.2334389635947867,-2.0931710259620315,8.66616674601491
-0.3987544351326951,-0.2578475262881223,-0.7827976382406787,-3.1467772961346374,-2.2196236172067443,8.994452869616273
-0.40133291039557634,-0.28004376246018975,-0.8142654112020251,-3.0568327674384745,-2.282207976576656,9.248626659761932
-0.40413334802017825,-0.3028658422259563,-0.8448337388764099,-2.9643465008408554,-2.288945888853116,9.438408157511654
-0.40716200644243783,-0.32575530111448747,-0.8744772038848184,-2.8699624192657387,-2.2478503789542645,9.573283814589141
-0.4104195594535827,-0.3482338049040301,-0.9031768280774758,-2.7742295811198474,-2.1665751075168145,9.662105272654133
-0.413901897502623,-0.36989955597919827,-0.9309191238886743,-2.677608528393306,-2.0521949548126988,9.712856261430803
-0.417600893062415,-0.39042150552732524,-0.9576952091726073,-2.580479965778998,-1.911090625585153,9.732549873451287
-0.42150510811768827,-0.4095324117831768,-0.9835000088303973,-2.483154467044485,-1.7489094457999352,9.727218669218326
-0.42560043223552,-0.42702150624117613,-1.0083315535008421,-2.385882280352302,-1.5705777711881366,9.701965145521328
-0.4298706472979318,-0.4427272839530575,-1.0321903763043652,-2.2888626288970886,-1.3803452971553007,9.661047041285517
-0.4342979201374624,-0.4565307369246105,-1.055079002593336,-2.1922521584842336,-1.181846597854909,9.607978888629589
-0.4388632275067085,-0.46834920290315957,-1.0770015241781785,-2.0961723695979377,-0.9781696665426092,9.545637196250544
-0.4435467195357401,-0.4781308995685857,-1.0979632478741579,-2.0007159976354325,-0.7719247884516296,9.476361351419207
-0.44832802853142595,-0.48585014745310195,-1.1179704078505122,-1.9059523841212405,-0.5653097350423918,9.402045771191487
-0.453186530005957,-0.49150324480352586,-1.1370299316917245,-1.8119319264093257,-0.36016914145128687,9.324221211061412
-0.45810156245399225,-0.49510493621803875,-1.1551492509558177,-1.7186897142987116,-0.15804717916083033,9.24412468597513
-0.46305261181617263,-0.49668540800964706,-1.1723361480988048,-1.6262484674389603,0.03976657730919377,9.162758397695502
-0.4680194658962691,-0.49628774223655514,-1.1885986327731943,-1.5346208834620054,0.2321977317347164,9.080938579726169
-0.47298234331863465,-0.49396576491920796,-1.2039448416078145,-1.4438114976647438,0.4183534997008587,8.999335409136723
-0.4779220009678267,-0.4897822299221994,-1.218382956584462,-1.3538181435733765,0.5974943032437336,8.9185051973547
-0.4828198232670487,-0.48380728688976204,-1.2319211380201958,-1.2646330915998294,0.769009827538674,8.83891603126204
-0.48765789613594634,-0.4761171886143753,-1.244567468936194,-1.176243931287209,0.9323988820039991,8.760967939706685
-0.4924190680220901,-0.4667931997943353,-1.2563299082490662,-1.0886342518901422,1.0872524744640262,8.685008539492806
-0.4970870000200335,-0.455920675049695,-1.2672162507679676,-1.001784166495214,1.23323958263745,8.611344987773142
-0.5016462067705304,-0.4435882792233205,-1.2772340924329197,-0.9156707166174827,1.3700951829640486,8.540252945276542
-0.5060820895627636,-0.42988732739368,-1.2863907995990946,-0.8302681871647173,1.4976101675591984,8.471983142545572
-0.5103809628367004,-0.41491122571808803,-1.2946934814707418,-0.7455483557392616,1.6156228434348197,8.406766041702157
-0.5145300750938813,-0.3987549972837398,-1.3021489650281344,-0.6614806953222401,1.7240117632153387,8.344814999658777
-0.5185176250667186,-0.3815148796515864,-1.3087637719813567,-0.5780325453256523,1.822689683527347,8.286328264531644
-0.5223327738632345,-0.36328798281631297,-1.3145440974346132,-0.49516926268033584,1.9115984866870583,8.23149007413553
-0.5259656536913977,-0.34417199794944237,-1.3194957900614166,-0.4128543619389805,1.990704934129578,8.180471072471542
-0.5294073736708921,-0.3242649486081466,-1.3236243336808065,-0.3310496512142651,2.0599971471746,8.133428215653868
-0.5326500231569735,-0.30366497713640056,-1.326934830192949,-0.2497153690577264,2.119481733144029,8.090504301420859
-0.5356866729283375,-0.28247015980496026,-1.3294319838835265,-0.1688103260435178,2.1691814934103397,8.051827225016687
-0.5385113745263871,-0.2607783448708569,-1.3311200871439617,-0.08829205379335094,2.2091336654431477,8.01750903771995
-0.5411191579750957,-0.2386870082164254,-1.3320030076818952,-0.008116963416151438,2.2393886640233682,7.987644861669855
-0.5435060280572599,-0.21629312157619174,-1.3320841773160568,0.07175948520054712,2.260009298106864,7.962311695050514
-0.5456689592730218,-0.1936930285951231,-1.3313665824640513,0.15138260215105226,2.271070449858362,7.941567124390204
-0.547605889558973,-0.1709823240965395,-1.3298527564425406,0.2307982733949543,2.2726592115868933,7.925447945050396
-0.5493157127999384,-0.14825573198067055,-1.327544773708591,0.31005275284545825,2.264875485082708,7.913968676320348
-0.5507982701197451,-0.12560697712984348,-1.3244442461801365,0.38919243960866173,2.2478330565203697,7.9071199433535435
-0.5520543398910436,-0.10312864656463978,-1.3205523217840498,0.46826363904219714,2.2216611689517225,7.904866683980651
-0.55308562635669,-0.08091203487512255,-1.3158696853936278,0.5473123058820036,2.1865066237299553,7.907146123744884
-0.5538947467054413,-0.059046968637822994,-1.3103965623348077,0.6263837671194524,2.1425364522139114,7.91386544689764
-0.5544852163918195,-0.03762160411568388,-1.3041327246636132,0.7055224215884288,2.08994120999823,7.924899074170531
-0.5548614324329763,-0.016722192015701583,-1.2970775004477288,0.7847714123301341,2.0289389578526076,7.940085439559212
-0.5550286543531333,0.003567197562824493,-1.2892297863244275,0.8641722667257262,1.9597800066237265,7.95922313784272
-0.554992982377505,0.023164997629061757,-1.2805880636571703,0.9437644981041534,1.8827525175526032,7.982066291959935
-0.5547613324012144,0.04199252280458779,-1.2711504186761287,1.0235851610237527,1.7981890646439491,8.008318964686328
-0.5543414071731685,0.05997441345102728,-1.2609145670658912,1.103668350670616,1.706474281535232,8.037628412579137
-0.5537416630386582,0.07703915626637961,-1.249877883559185,1.1840446347964073,1.6080537310799554,8.069576952564214
-0.5529712714759945,0.09311969357717917,-1.238037437211221,1.2647404043220494,1.5034441504539664,8.103672184084191
-0.5520400745402226,0.10815413508171884,-1.2253900331680005,1.3457771261628912,1.393245236234626,8.139335284518218
-0.5509585331894055,0.1220865874440651,-1.2119322619063717,1.4271704790080735,1.2781531398959114,8.175887075913566
-0.5497376673149648,0.13486811884302422,-1.197660557116291,1.5089293497672092,1.1589758405575992,8.212531551885242
-0.5483889861265345,0.1464578772486002,-1.182571263618619,1.5910546652860615,1.0366505429843815,8.24833656203001
-0.5469244073540486,0.15682438267844404,-1.1666607169657583,1.6735380309063617,0.9122632068971592,8.28221138752246
-0.5453561635272641,0.16594701474741563,-1.1499253366566948,1.7563601447815862,0.7870702379637826,8.312881019681205
-0.54369669337979,0.17381771712705346,-1.132361735208879,1.8394889549783981,0.6625222472687077,8.338857091895724
-0.5419585162085194,0.18044293959974053,-1.113966845659095,1.9228775258973554,0.5402895965384472,8.35840563859223
-0.540154086812522,0.18584583556512502,-1.0947380704001215,2.006461582283278,0.42228916865057015,8.369512193053577
-0.5382956284568707,0.1900687272516307,-1.0746734545772887,2.090156704213814,0.3107114109826669,8.369845224587758
-0.5363949411843544,0.19317584136145738,-1.0537718875351505,2.1738551564596915,0.20804616498443265,8.3567195939172
-0.5344631827707398,0.1952563030113017,-1.0320333359705536,2.2574223523988635,0.11710509288879888,8.327062611473592
-0.5325106197406267,0.1964273539401897,-1.009459112446565,2.3406929785135993,0.041037624685081146,8.27738644358608
-0.5305463462012249,0.1968377301870405,-0.986052182661429,2.42346684294946,-0.01666372077879251,8.203772027183895
-0.5285779688993545,0.1966710929792526,-0.9618175142319344,2.5055045632212987,-0.0521739948700176,8.101871275596256
-0.526611257969562,0.19614935303055242,-0.9367624685997215,2.586523275977261,-0.061369054326863265,7.966936054936708
-0.5246497644392565,0.1955356624872838,-0.9108972358399489,2.6661926365266284,-0.03988904578866901,7.793883929014567
-0.5226944078143837,0.1951367720293971,-0.8842353094746825,2.744131475816774,0.016759592379380128,7.577411595726552
-0.5207430400940898,0.19530436795319092,-0.8567939947165149,2.8199055917740394,0.11305568709496429,7.312166668936224
-0.5187899964145579,0.19643492482414057,-0.8285949387987744,2.893027258463402,0.2532623827519068,6.9929862295833765
-0.5168256471663165,0.19896754865165964,-0.7996646662141405,2.962957120759236,0.44117162459370923,6.615205542701202
-0.5148359716797999,0.20337926489759672,-0.7700350950065481,3.029109176186248,0.6797986525255646,6.175031827835968
-0.5128021790308239,0.21017725142285237,-0.7397440032446856,3.0908594944646075,0.9710404887687625,5.6699658014400285
-0.5107004065165954,0.21988765631054,-0.7088354083000395,3.147559152479008,1.3153239547275841,5.099238671675472
-0.5085015299534901,0.23304089585781584,-0.6773598167752495,3.1985515391957624,1.7112807894105753,4.464216547171109
-0.5061711209949119,0.2501537037519216,-0.6453743013832919,3.2431937046674735,2.1554971399153775,3.7687115586841697
-0.5036695839573927,0.2717086751510754,-0.6129423643366172,3.2808808202543154,2.6423883968614734,3.0191342321354053
-0.500952497205882,0.2981325591196901,-0.580133556134074,3.3110721625756696,3.1642444928671103,2.2244294996597085
-0.49797117161468507,0.32977500404836124,-0.5470228345083173,3.3333164575722667,3.711473351935229,1.3957618175081836
-0.49467342157420147,0.36688973756771354,-0.5136896699325947,3.3472740757473485,4.273042199521817,0.5459517143687749
-0.4910045241985243,0.4096201595629317,-0.4802169291751212,3.352733592891036,4.837082763760446,-0.31128983509748065
-0.486908322602895,0.45799098720053616,-0.4466895932462108,3.3496206945400613,5.391594979499156,-1.1622421872964528
-0.48232841273088967,0.5119069369955277,-0.4131933863008102,3.3379982726670967,5.925163376790392,-1.994058308969909
-0.4772093433609344,0.5711585707634316,-0.37981340357413923,3.3180576895773974,6.427597167368738,-2.7955354263771723
-0.4714977576533001,0.6354345424371189,-0.34663282667836526,3.290102335313626,6.890420346741132,-3.557679828217441
