th1 (rad),w1 (rad/s),th2 (rad),w2 (rad/s),a1 (rad/s^2),a2 (rad/s^2)
4.506359917490615,1.3434489842553425,5.70500754874287,1.0631750187609637,10.120226223373544,-0.005516662547305772
4.519794407333168,1.444651246489078,5.71563929893048,1.0631198521354905,10.221037430380248,-0.41711469519786903
4.534240919798059,1.5468616207928805,5.726270497451835,1.0589487051835118,10.325062092857006,-0.8611493932684395
4.549709536005987,1.6501122417214504,5.73685998450367,1.0503372112508274,10.432578359168142,-1.338288754910586
4.566210658423202,1.7544380253131318,5.7473633566161775,1.0369543237017216,10.544040607445552,-1.849212105398463
4.583755038676333,1.8598784313875873,5.7577328998531945,1.018462202647737,10.660107864873435,-2.3946145601857283
4.602353822990209,1.9664795100363217,5.767917521879672,0.9945160570458798,10.781674535483791,-2.9752145991977135
4.622018618090572,2.0742962553911597,5.77786268245013,0.9647639110539026,10.909903305346406,-3.591765156061517
4.642761580644484,2.1833952884446237,5.787510321560669,0.9288462594932874,11.046259977866676,-4.245068472106194
4.66459553352893,2.2938578882232905,5.796798784155602,0.8863955747722254,11.192549810524827,-4.935994680439537
4.6875341124111625,2.405783386328539,5.805662739903324,0.83703562796783,11.350954637077868,-5.665503601692046
4.7115919462744476,2.5192929326993174,5.814033096183002,0.7803805919509096,11.524069600633275,-6.434668446088389
4.73678487560144,2.63453362870565,5.821836902102511,0.7160339074900257,11.714937588970653,-7.24469886734597
4.763130211888497,2.7516830045953564,5.828997241177412,0.643586918816566,11.927078289180148,-8.0969588580462
4.7906470419344505,2.870953787487158,5.835433110365577,0.562617330236104,12.164506904374464,-8.992971936308274
4.819356579809322,2.9925988565309023,5.8410592836679385,0.4726876108730213,12.431734593653085,-9.93440136672728
4.8492825683746315,3.1169162024674333,5.845786159776669,0.3733435972057485,12.733737972654787,-10.922985884737361
4.880451730399305,3.244253582193981,5.849519595748726,0.26411373835837487,13.075877563756166,-11.960400171644503
4.912894266221246,3.375012357831543,5.85216073313231,0.14450973664192984,13.46373341204678,-13.04799206153872
4.946644389799561,3.509649691952011,5.853605830498729,0.01402981602654263,13.90280794092864,-14.186322035168773
4.981740886719081,3.6486777713612972,5.853746128658995,-0.12783340432514512,14.398018267216436,-15.374390503622832
5.018227664432693,3.7926579540334617,5.852467794615743,-0.2815773093613735,14.952858237449497,-16.608378725205284
5.056154243973028,3.9421865364079567,5.849652021522129,-0.44766109661342635,15.5680491729,-17.87964299384023
5.095576109337108,4.097867028136957,5.845175410555995,-0.6264575265518286,16.239413494806954,-19.171583798579764
5.136554779618478,4.260261163085026,5.838910835290476,-0.8181733645376262,16.954599411781558,-20.45486672465321
5.179157391249328,4.429807157202842,5.8307291016451,-1.0227220317841583,17.688181019474477,-21.68033531662336
5.223455462821357,4.606688967397587,5.820501881327258,-1.239525384950392,18.394633137806938,-22.768940169818613
5.269522352495333,4.790635298775657,5.808106627477755,-1.467214786648578,18.998927274804917,-23.59839207441746
5.317428705483089,4.980624571523705,5.7934344796112685,-1.7031987073927528,19.385422394950307,-23.987614000334766
5.367234951198326,5.174478795473209,5.776402492537341,-1.9430748473961006,19.388028996454455,-23.68340744200518
5.418979739153058,5.368359085437754,5.75697174406338,-2.1799089218161525,18.789078205170604,-22.36014435259396
5.472663330007435,5.55624986748946,5.735172654845218,-2.403510365342092,17.340584727720284,-19.652214424023345
5.52822582868233,5.729655714766663,5.711137551191798,-2.6000325095823253,14.825198208319579,-15.243982670295557
5.5855223858299965,5.877907696849858,5.685137226095975,-2.752472336285281,11.163239432392837,-9.026183634022795
5.644301462798495,5.989540091173787,5.657612502733122,-2.842734172625509,6.533359243950139,-1.2717897930422448
5.704196863710233,6.054873683613288,5.629185161006867,-2.8554520705559314,1.4206997574973337,7.292745147222598
5.764745600546366,6.069080681188262,5.600630640301308,-2.7825246190837056,-3.4949326608057,15.647459814232024
5.825436407358248,6.034131354580205,5.57280539411047,-2.6260500209413853,-7.5878284495078585,22.83871998335532
5.88577772090405,5.958253070085126,5.546544893901056,-2.397662821107832,-10.511822140323494,28.309798946929234
5.945360251604901,5.853134848681891,5.522568265689978,-2.1145648316385395,-12.25530766019634,31.988827360731822
6.003891600091721,5.730581772079927,5.501422617373593,-1.7946765580312212,-13.035874612599846,34.144233008909794
6.06119741781252,5.6002230259539285,5.483475851793281,-1.453234227942123,-13.151203430200445,35.1725722075866
6.1171996480720585,5.468710991651924,5.46894350951386,-1.101508505866257,-12.875492522279075,35.447799087118725
6.171886757988577,5.339956066429133,5.457928424455197,-0.7470305149950698,-12.41777666533679,35.2579084548215
6.225286318652869,5.215778299775765,5.450458119305247,-0.3944514304468548,-11.920012229184135,34.799054829752876
6.277444101650627,5.096578177483924,5.446513605000778,-0.04646088214932603,-11.470946677286612,34.19342658136564
6.328409883425466,4.9818687107110575,5.446048996179284,0.2954733836643304,-11.122089672618698,33.511196183207765
6.378228570532577,4.870647813984871,5.449003730015927,0.6305853454964081,-10.900640102314215,32.78886362822226
6.4269350486724255,4.761641412961729,5.455309583470891,0.9584739817786307,-10.818530866891066,32.0424900206342
6.474551462802043,4.653456104292818,5.464894323288677,1.2788988819849727,-10.878277384926811,31.276579619249326
6.521086023844971,4.54467333044355,5.477683312108526,1.591664678177466,-11.076580213316252,30.4898205243228
6.566532757149407,4.433907528310388,5.493599958890301,1.8965628834206938,-11.406476392362842,29.67872201302276
6.610871832432511,4.31984276438676,5.512565587724508,2.1933501035509213,-11.858605413497234,28.83989095967921
6.654070260076378,4.201256710251787,5.5344990887600165,2.4817490131477133,-12.421963793157413,27.971435205121775
6.696082827178896,4.077037072320213,5.559316578891494,2.761463365198931,-13.084385250742757,27.073800076911656
6.736853197902098,3.946193219812785,5.586931212543483,3.0322013659680476,-13.83289198943833,26.150225740190702
6.776315130100226,3.8078642999184016,5.617253226203164,3.2937036233699546,-14.654002909847664,25.20694004143916
6.81439377309941,3.661324270819925,5.650190262436863,3.545773023784346,-15.53404563435508,24.253158705935252
6.8510070158076095,3.5059838144763744,5.685647992674706,3.788304610843699,-16.459493360483126,23.300941021659114
6.886066853952373,3.341388880871543,5.723531038783143,4.02131402106029,-17.417329968941118,22.364936838207946
6.919480742761088,3.167215581182132,5.763744178993746,4.244963389442369,-18.39543454074139,21.46205461547485
6.95115289857291,2.983261235774718,5.80619381288817,4.459583935597117,-19.382967647028167,20.611076704115714
6.980985510930657,2.7894315593044365,5.850789652244141,4.665694702638275,-20.37073513685527,19.83224424294552
7.008879826523701,2.585724207935884,5.897446599270524,4.86401714506773,-21.351499378158255,19.1468276069606
7.03473706860306,2.372209214154301,5.946086770721202,5.055485421137336,-22.320201348432782,18.57668672352113
7.058459160744603,2.149007200669973,5.996641624932575,5.241252288372547,-23.274047148241007,18.14380561503684
7.079949232751303,1.916266729187563,6.0490541478163005,5.422690344522916,-24.212395567160478,17.869752572478202
7.099111900043178,1.6741427735159582,6.103281051261529,5.601387870247698,-25.136353259787278,17.77496409195098
7.115853327778338,1.4227792409180853,6.159294929964006,5.779137511167208,-26.047931669128506,17.877665409975073
7.130081120187519,1.1622999242268002,6.217086305075679,5.957914165266958,-26.948531389974885,18.19210494397052
7.141704119429787,0.8928146103270513,6.276665446728348,6.139835214706663,-27.836376357109774,18.72556789662535
7.150632265533058,0.6144508467559535,6.338063798875415,6.327090893672916,-28.70230051167288,19.473313820889892
7.156776774000617,0.3274278416392247,6.401334707812144,6.521824031881815,-29.522982379040922,20.410133491097508
7.16005105241701,0.032198017848815486,6.466552948130962,6.72592536679279,-30.250371391992626,21.476691295518403
7.160373032595498,-0.27030569607111077,6.53381220179889,6.940692279747974,-30.795869555397562,22.558491840189564
7.157669975634787,-0.5782643916250865,6.60321912459637,7.16627719814987,-31.008483939879035,23.456074557719308
7.151887331718536,-0.8883492310238768,6.674881896577869,7.400837943727063,-30.649246144670823,23.84908910322467
7.143003839408297,-1.194841692470585,6.74889027601514,7.63932883475931,-29.37267088232744,23.268367255523003
7.131055422483591,-1.4885684012938594,6.825283564362733,7.8720125073145395,-26.742926086415327,21.11332533842307
7.116169738470653,-1.7559976621580127,6.9040036894358785,8.08314576069877,-22.33304855036643,16.780929162117367
7.098609761849072,-1.979328147661677,6.984835147042866,8.250955052319943,-15.949541624713603,9.96550949310041
7.078816480372455,-2.1388235639088133,7.067344697566066,8.350610147250947,-7.931156457072047,1.0620549829893862
7.057428244733368,-2.218135128479534,7.150850799038575,8.36123069708084,0.7116996294205545,-8.64322900927494
7.035246893448572,-2.211018132185328,7.234463106009383,8.27479840698809,8.59378170394426,-17.370022917198987
7.013136712126719,-2.1250803151458855,7.317211090079264,8.1010981778161,14.596668807233248,-23.700938430128673
6.99188590897526,-1.979113627073553,7.398222071857425,7.864088793514814,18.32888125453132,-27.184275581694777
6.972094772704525,-1.7958248145282398,7.476862959792574,7.5922460376978655,20.06409211389683,-28.232798632831518
6.954136524559242,-1.5951838933892715,7.552785420169553,7.30991805136955,20.372439604527667,-27.622410083172657
6.93818468562535,-1.3914594973439949,7.625884600683248,7.033693950537824,19.808659634919895,-26.081475644402023
6.92427009065191,-1.193372900994796,7.696221540188627,6.772879194093804,18.783008449769202,-24.13066716054105
6.9123363616419615,-1.0055428164971039,7.763950332129565,6.531572522488394,17.55609868389248,-22.08644376552959
6.90228093347699,-0.8299818296581791,7.829266057354449,6.310708084833098,16.277413229316227,-20.118460106684683
6.8939811151804085,-0.6672076973650168,7.89237313820278,6.109523483766251,15.025412118351397,-18.30557054836247
6.887309038206758,-0.5169535761815028,7.953468373040442,5.9264677782826265,13.836871388776679,-16.67545609157734
6.882139502444943,-0.37858486229373606,8.012733050823268,5.759713217366853,12.72550884232378,-15.229062768252254
6.878353653822006,-0.25132977387049826,8.070330182996937,5.60742258968433,11.692978310906412,-13.954574994619522
6.875840356083301,-0.13439999076143416,8.12640440889378,5.467876839738135,10.735081317962583,-12.835003489210614
6.874496356175687,-0.02704917758180833,8.181083177291162,5.339526804846029,9.845162723826016,-11.85211436346006
6.874225864399869,0.07140244965645183,8.234478445339622,5.221005661211429,9.015903949073822,-10.988340928213374
6.874939888896433,0.16156148914719004,8.286688501951737,5.111122251929295,8.240223887886765,-10.227616208670286
6.876555503787905,0.2439637280260577,8.33779972447103,5.008846089842592,7.5116917619195505,-9.555646469511705
6.878995141068166,0.3190806456452532,8.387888185369455,4.913289625147475,6.8246785424007586,-8.959908562560479
6.8821859475246185,0.38732743106926076,8.43702108162093,4.82369053952187,6.174372693774796,-8.429521964605438
6.886059221835311,0.4490711580070087,8.48525798701615,4.739395319875816,5.556729344356847,-7.95507408253543
6.8905499334153815,0.5046384514505772,8.532651940214908,4.6598445790504615,4.968390371587509,-7.528438225357777
6.895596317929887,0.5543223551664522,8.579250386005413,4.584560196796883,4.406595322420427,-7.142602670272301
6.901139541481552,0.5983883083906565,8.625095987973381,4.51313417009416,3.8690933837810073,-6.791518226728869
6.907123424565459,0.6370792422284666,8.670227329674322,4.4452189878268715,3.3540613042068497,-6.469966085598956
6.913494216987743,0.670619855270535,8.714679519552591,4.380519326970882,2.8600293028201884,-6.17344503790662
6.920200415540449,0.6992201482987369,8.7584847128223,4.318784876591816,2.385815496881255,-5.8980759940862795
6.927192617023436,0.7230783032675494,8.801672561588218,4.259804116650953,1.9304686236130235,-5.640521384957803
6.934423400056112,0.7423829895036796,8.844270602754728,4.203398902801375,1.4932184833998883,-5.39791707446431
6.941847229951148,0.7573151743376785,8.886304591782741,4.149419732056732,1.0734333985732645,-5.1678146437780965
6.949420381694525,0.7680495083234111,8.927798789103308,4.097741585618951,0.67058395884645,-4.948132201480998
6.957100876777759,0.7747553479118756,8.968776204959498,4.048260263604141,0.28421235329702466,-4.737112176214789
6.964848430256878,0.7775974714448458,9.00925880759554,4.000889141841993,-0.08609336095249669,-4.533284828032911
6.972624404971326,0.7767365378353208,9.04926769901396,3.955556293561664,-0.44072064688692897,-4.335436460552181
6.98039177034968,0.7723293313664515,9.088823261949576,3.9122019289561423,-0.7800500706863012,-4.142581524302888
6.9881150636633445,0.7645288306595885,9.127945281239137,3.8707761137131134,-1.1044695657559713,-3.9539379730479043
6.99576035196994,0.7534841350020288,9.166653042376268,3.8312367339826343,-1.414385815068409,-3.7689053718424783
7.0032951933199605,0.7393402768513447,9.204965409716094,3.7935476802642096,-1.7102331430378377,-3.587045361457084
7.010688596088474,0.7222379454209663,9.242900886518736,3.7576772266496388,-1.99248026307823,-3.4080641617121525
7.017910975542684,0.702313142790184,9.280477658785232,3.7235965850325172,-2.261635181478605,-3.2317968491644464
7.024934106970585,0.6796967909753979,9.317713624635557,3.6912786165408726,-2.5182485107816084,-3.0581931748265334
7.031731074880339,0.6545143058675819,9.354626410800966,3.6606966847926072,-2.7629153950773366,-2.8873046970185623
7.038276217939015,0.6268851519168085,9.391233377648891,3.631823637822422,-2.9962761942456826,-2.7192729943203533
7.0445450694581835,0.5969223899743517,9.427551614027116,3.6046309078792182,-3.219016013061728,-2.554318694727733
7.050514293357927,0.5647322298437344,9.463597923105908,3.5790877209319407,-3.431863093309211,-2.3927310100490744
7.0561616156563645,0.5304135989106423,9.499388800315227,3.55516041083145,-3.6355860121025656,-2.234857399848795
7.061465751645471,0.4940577387896167,9.534940404423542,3.532811836832962,-3.8309895476475258,-2.081092907880341
7.066406329033367,0.45574784331314144,9.570268522791872,3.512000907754159,-4.018908985954187,-1.931868618153928
7.070963807466499,0.41555875345359955,9.605388531869414,3.4926822215726196,-4.200202551629789,-1.787638571922447
7.0751193950010345,0.37355672793730166,9.640315354085141,3.4748058358533953,-4.375741558599253,-1.6488643787984145
7.078854962280407,0.3297993123513091,9.675063412443675,3.458317192065411,-4.546397802054982,-1.5159966579520328
7.08215295540392,0.2843353343307593,9.709646584364329,3.443157225485891,-4.713027665908615,-1.389452379000437
7.084996308747228,0.23720505767167316,9.744078156619187,3.4292627016958868,-4.876452421741995,-1.2695871659502418
7.0873683593239445,0.1884405334542532,9.778370783636145,3.4165668300363845,-5.037434274303917,-1.1566617210851022
7.089252764658487,0.13806619071121404,9.81253645193651,3.4050002128255334,-5.196647900713685,-1.0508017692857832
7.090633426565599,0.08609971170407718,9.846586454064765,3.3944921951326754,-5.354647576431946,-0.9519513751774213
7.09149442368264,0.03255323593975772,9.88053137601609,3.3849726813809013,-5.511830520967659,-0.8598202047624932
7.091819956042038,-0.022565069269918865,9.9143811028299,3.3763744793332764,-5.668397859808315,-0.7738263360142185
7.091594305349338,-0.07924904786800202,9.948144847623233,3.368636215973134,-5.824315589410765,-0.6930375809752649
7.090801814870658,-0.1374922037621097,9.981831209782964,3.3617058401633813,-5.979279105017994,-0.6161159129772193
7.089426892833037,-0.19728499481228962,10.015448268184597,3.355544681033609,-6.132686091188683,-0.5412713467703193
7.087454042884914,-0.25861185572417644,10.049003714994933,3.350131967565906,-6.283623676156555,-0.46623322012907936
7.084867924327673,-0.321448092485742,10.082505034670593,3.345469635364615,-6.430876412307569,-0.38824786083655016
7.081653443402816,-0.3857568566088177,10.115959731024239,3.34158715675625,-6.5729614951242725,-0.3041115765519161
7.077795874836728,-0.45148647156006044,10.149375602591801,3.338546040990731,-6.708196298928424,-0.21024624691028262
7.073281010121127,-0.5185684345493446,10.182761063001708,3.336443578521628,-6.834800529233328,-0.10282113983677951
7.068095325775634,-0.586916439841678,10.216125498786925,3.33541536712326,-6.951031065709125,0.02208112566710128
7.062226161377217,-0.6564267504987692,10.249479652458158,3.335636178379931,-7.05534228470456,0.16826379921278586
7.055661893872229,-0.7269801733458148,10.282836014241957,3.3373188163720586,-7.146559141179396,0.3391974199212193
7.048392092138771,-0.7984457647576088,10.316209202405677,3.3407107905712707,-7.224045752923771,0.53780695725388
7.040407634491195,-0.8706862222868464,10.34961631031139,3.3460888601438095,-7.287849963413389,0.7662917032979691
7.0317007722683265,-0.9435647219209803,10.383077198912828,3.353751777176789,-7.3388053750513125,1.0260040401802328
7.022265125049117,-1.0169527756714933,10.416614716684595,3.3640118175785916,-7.37857697059563,1.317407361104085
7.012095597292402,-1.0907385453774496,10.450254834860381,3.3771858911896326,-7.409644088083627,1.6401233820671988
7.0011882118386275,-1.1648349862582859,10.484026693772277,3.3935871250103045,-7.435223735873774,1.993066782449856
6.989539861976045,-1.2391872236170236,10.51796256502238,3.413517792834803,-7.459146097687654,2.3746531960936603
6.9771479897398745,-1.3137786845939001,10.552097742950728,3.4372643247957395,-7.485700733211529,2.783057609139441
6.9640102028939355,-1.3886356919260154,10.586470386198686,3.465094900887134,-7.5194752024973965,3.216495954417469
6.950123845974676,-1.4638304439509895,10.621121335207556,3.4972598604313085,-7.565207341240013,3.6735036093250493
6.935485541535166,-1.5394825173633897,10.656093933811869,3.533994896524559,-7.62766881443314,4.153189834915527
6.920090716361532,-1.615759205507721,10.691433882777115,3.5755267948737144,-7.711592120326384,4.655455313292754
6.903933124306454,-1.692875126710985,10.727189150725852,3.622081348006642,-7.8216473354150855,5.181168955197994
6.887004373039344,-1.7710916000651358,10.763409964205918,3.6738930375586216,-7.962469814575572,5.732308438679762
6.869293457038693,-1.8507162982108916,10.800148894581504,3.7312161219454194,-8.138736585375021,6.312075486173947
6.850786294056584,-1.9321036640646418,10.837461055800958,3.794336876807159,-8.355287616339515,6.92500136071525
6.831465257415937,-2.015656540228037,10.87540442456903,3.8635868904143114,-8.617288418860932,7.577060703886579
6.8113086920136565,-2.101829424416646,10.914040293473173,3.939357497453177,-8.930432252551492,8.275813249972053
6.79029039776949,-2.1911337469421612,10.953433868447705,4.022115629952897,-9.30118315964215,9.030593874552462
6.768379060300068,-2.284145578538583,10.993655024747234,4.112421568698422,-9.737064803834068,9.852772579165263
6.745537604514682,-2.3815162265769234,11.034779240434219,4.210949294490074,-10.247004352365282,10.75610792670671
6.721722442248913,-2.4839862701005764,11.07688873337912,4.3185103737571415,-10.841745162262551,11.757220409708298
6.696882579547907,-2.592403721723202,11.12007383711669,4.436082577854225,-11.534346428264564,12.876216103928188
6.670958542330675,-2.707747186005848,11.164434662895232,4.564844738893506,-12.340791365787192,14.137494765306611
6.643881070470616,-2.83115509966372,11.210083110284167,4.706219686546572,-13.280725904735931,15.570777614750963
6.615569519473979,-2.963962358711079,11.257145307149633,4.861927462694082,-14.378342561791037,17.212382132691925
