th1 (rad),w1 (rad/s),th2 (rad),w2 (rad/s)
4.9211058572620106,3.125668988763857,1.3288580418299518,-0.7396075828108254
4.952362547149649,3.184656349100343,1.3214619660018436,-0.8242081153035148
4.984209110640652,3.240086278574768,1.3132198848488086,-0.9179210647857025
5.0166099734264,3.2922796075841516,1.3040406742009516,-1.0206564034506798
5.049532769502242,3.341659777534576,1.2938341101664448,-1.1322234715411208
5.082949367277587,3.3887468297950023,1.2825118754510336,-1.2523506217814697
5.116836835575537,3.434148986992199,1.269988369233219,-1.3807100503388763
5.151178325445459,3.478552740927604,1.2561812687298302,-1.5169466085039516
5.1859638528547345,3.52271252569375,1.2410118026447907,-1.6607092444314482
5.221190978111672,3.567441130864304,1.2244047102004763,-1.8116837545009714
5.256865389420315,3.613602001375787,1.2062878726554664,-1.9696257270040596
5.293001409434073,3.662104496391232,1.186591615385426,-2.1343929132839077
5.329622454397985,3.713903069153274,1.165247686252587,-2.3059767252020147
5.366761485089517,3.7700012201415056,1.1421879190005668,-2.484533090543551
5.404461497290932,3.8314610041357797,1.1173425880951313,-2.670413462916715
5.44277610733229,3.8994188715423546,1.090638453465964,-2.864197356127888
5.4817702960477135,3.9751087216739993,1.0619964799046853,-3.066728347407966
5.521521383264454,4.059893256259168,1.0313291964306055,-3.27915607510521
5.562120315827046,4.1553050450993965,0.9985376356795534,-3.5029873525370516
5.60367336627804,4.263099122564428,0.963507762154183,-3.7401501147656857
5.646304357503684,4.3853193285689045,0.9261062610065262,-3.9930744132799383
5.690157550789373,4.524380746046187,0.8861755168737268,-4.26479477533454
5.7354013582498355,4.683169876457108,0.8435275691203814,-4.5590771682737525
5.782233057014406,4.865161240507132,0.7979367974376439,-4.880569655990462
5.830884669419477,5.074540650107873,0.7491311008777393,-5.2349641338571535
5.881630075920556,5.316303990935664,0.6967814595391677,-5.629126904864103
5.934793115829913,5.5962489050731605,0.6404901904905267,-6.071084532665968
5.990755604880644,5.920657156040568,0.579779345163867,-6.569585148205388
6.04996217644105,6.295197528341381,0.514083493681813,-7.1325819289049175
6.112914151724464,6.722019983370949,0.44275767439276387,-7.763204020011943
6.1801343515581735,7.193036649012696,0.36512563419264443,-8.450413180565148
6.252064718048301,7.676561973548582,0.28062150238699296,-9.150380966000116
6.328830337783787,8.097721135919022,0.1891176927269918,-9.759129174018414
6.409807549142977,8.331208108970145,0.09152640098680767,-10.102397450520304
6.493119630232679,8.255350767463968,-0.009497573518395364,-10.011189209144232
6.5756731379073186,7.868952496603672,-0.1096094656098377,-9.484778120193537
6.654362662873355,7.312705631947731,-0.20445724681177307,-8.719850969816461
6.727489719192833,6.737323506233646,-0.2916557565099377,-7.926191897285445
6.794862954255169,6.218434845629631,-0.37091767548279214,-7.20870690849064
6.857047302711465,5.773980073752729,-0.44300474456769856,-6.592214978756476
6.914787103448993,5.398396188214951,-0.5089268943552633,-6.069102186523103
6.9687710653311425,5.080277942651973,-0.5696179162204943,-5.6237965640090835
7.019573844757662,4.808539595529358,-0.6258558818605852,-5.241256293408347
7.067659240712956,4.573954974632163,-0.6782684447946686,-4.909069174818381
7.113398790459278,4.369209018115897,-0.7273591365428524,-4.617508422834686
7.157090880640436,4.188571362323639,-0.7735342207711993,-4.359076467343638
7.198976594263673,4.027538237808912,-0.8171249854446356,-4.128010784474998
7.2392519766417625,3.882532554327227,-0.8584050932893856,-3.9198728507118505
7.278077302185035,3.7506727815299636,-0.8976038217965041,-3.731232928436202
7.315584030000335,3.629600205264837,-0.9349161510808661,-3.5594349926434656
7.351880032052983,3.5173512025921765,-0.9705105010073007,-3.4024223547256955
7.3870535440789045,3.412263161478007,-1.0045347245545577,-3.2586073870796155
7.4211761756936845,3.31290544013134,-1.0371207984253539,-3.1267725974750435
7.454305230094998,3.218029159336846,-1.0683885244001043,-3.0059936193673527
7.486485521688366,3.126531434837014,-1.0984484605937779,-2.8955772338986567
7.517750836036736,3.0374309387505187,-1.1274042329327645,-2.7950094425066343
7.548125145424241,2.9498525331998824,-1.1553543273578308,-2.7039100519050607
7.57762367075624,2.8630192403678865,-1.1823934278768815,-2.6219913788271385
7.606253863159918,2.776250077083844,-1.208613341665153,-2.5490196489116297
7.6340163639307566,2.6889623525219486,-1.2341035381542693,-2.4847785235394806
7.660905987455976,2.600676965722669,-1.258951323389664,-2.4290349652485985
7.686912757113203,2.511025111277548,-1.28324167304215,-2.3815083288295926
7.712023008225978,2.419754680097822,-1.307056756330446,-2.3418440882905855
7.736220555026956,2.3267346050776747,-1.330475197213352,-2.309593905185356
7.759487901077733,2.2319555193223013,-1.3535711362652054,-2.2842037372434123
7.781807456270957,2.1355254155288557,-1.3764131736376395,-2.265011331271155
7.803162710426245,2.0376595277416345,-1.399063286950351,-2.2512537486188866
7.823539305703662,1.9386643587216212,-1.4215758244365397,-2.2420846143067648
7.842925949290878,1.8389165544473633,-1.4439966705796075,-2.2365997115412597
7.861315114835351,1.7388380534822343,-1.46636266769502,-2.2338685570450867
7.878703495370174,1.6388694789373548,-1.488701353265471,-2.23296888650595
7.895092190159548,1.5394439898350434,-1.5110310421305304,-2.233020701321675
7.910486630057898,1.4409637213003375,-1.5333612491437472,-2.2332167348308354
7.924896267270902,1.3437805460503978,-1.5556934164920555,-2.2328468388562994
7.938334072731406,1.2481822741039013,-1.5780218848806185,-2.231314729096507
7.950815895472445,1.154384701938818,-1.6003350321715835,-2.2281465704539403
7.9623597424918335,1.062529257348663,-1.6226164978761228,-2.2229918426473905
7.97298503506532,0.9726854640811884,-1.6448464163025966,-2.2156176605997198
7.982711889706132,0.8848571261806776,-1.6670025929085939,-2.205898161716864
7.991560460967939,0.7989910119560159,-1.6890615745257624,-2.193800712849389
7.9995503710875,0.7149868695744309,-1.7109995816542563,-2.1793705864642643
8.006700239783244,0.6327077772676534,-1.732793287518899,-2.1627154890249294
8.01302731755592,0.5519900637229287,-1.7544204424091483,-2.1439909786664084
8.018547218193149,0.4726522792880089,-1.7758603521958123,-2.1233874539269
8.02327374098603,0.39450292143279614,-1.7970942267350813,-2.1011190785330003
8.027218770200358,0.3173467991042353,-1.8181054175204114,-2.0774147545219126
8.0303922381914,0.2409900536552259,-1.8388795650656307,-2.0525110745086383
8.032802138727952,0.165243941300855,-1.859404675810717,-2.026647068541657
8.034454578140961,0.08992753091602468,-1.8796711464961335,-2.000060500032144
8.035353853450122,0.01486949065815997,-1.899671751496455,-1.9729854448383015
8.035502548356703,-0.06009086361448049,-1.919401605944838,-1.9456508945951234
8.034901639720559,-0.13510309818030014,-1.9388581148907893,-1.9182801488405972
8.033550608738755,-0.21030562920681645,-1.9580409163791952,-1.8910907921030118
8.031447552446688,-0.28582601007287706,-1.9769518243002253,-1.864295086117004
8.02858929234596,-0.3617814415728108,-1.9955947751613954,-1.8381006400781554
8.024971477930231,-0.438279428046813,-2.013975781562177,-1.812711251281471
8.020588683649763,-0.51541851951681,-2.032102894074992,-1.7883278336967738
8.015434498454594,-0.5932890940138127,-2.0499861724119595,-1.765149372821826
8.009501607514457,-0.6719741455602766,-2.0676376661401776,-1.7433738617599297
8.002781866058854,-0.7515500519971414,-2.0850714047577767,-1.7231991863516185
7.995266365538882,-0.8320873033759653,-2.1023033966212927,-1.7048239368918698
7.986945492505122,-0.9136511763429414,-2.1193516359902116,-1.6884481310275739
7.977808980741693,-0.9963023431741092,-2.1362361173004873,-1.6742738373525754
7.967845957309952,-1.0800974061922552,-2.152978855674013,-1.662505692432824
7.9570449832480294,-1.1650893494745929,-2.1696039125983413,-1.653351305866527
7.945394089753283,-1.2513279002723345,-2.1861374256570065,-1.6470215488141229
7.93288081075056,-1.3388597925968055,-2.2026076411451476,-1.6437307214659609
7.919492212824592,-1.4277289251384033,-2.2190449483598074,-1.6436965943537603
7.905214923573208,-1.5179764052065214,-2.235481914303345,-1.64714031742502
7.890035159521143,-1.6096404698247093,-2.251953317477595,-1.6542861895360024
7.873938754822896,-1.7027562745880989,-2.268496179372955,-1.6653612796155273
7.856911192077015,-1.7973555404850978,-2.2851497921691104,-1.6805948893421396
7.838937636672164,-1.8934660486954764,-2.3019557410625318,-1.7002178458983213
7.82000297618521,-1.991110973495576,-2.318957919521515,-1.7244616123630587
7.800091866450254,-2.090308043923635,-2.3362025356451457,-1.7535572027357127
7.779188786011018,-2.191068525881216,-2.353738107672503,-1.7877338886197125
7.757278100752205,-2.2933960179674178,-2.3716154465587,-1.8272176854144229
7.734344140572531,-2.3972850566537036,-2.3898876234128443,-1.8722296076526985
7.710371290005994,-2.502719529490712,-2.4086099194893715,-1.9229836860604534
7.685344094711087,-2.609670898955954,-2.427839756349976,-1.979684743164317
7.659247385721527,-2.7180962443321337,-2.447636603781619,-2.042525929957253
7.632066423278206,-2.827936134632233,-2.4680618630811915,-2.111686033310692
7.603787061931884,-2.939112351978273,-2.4891787234142986,-2.1873265724654427
7.574395938412102,-3.051525491834251,-2.511051989138953,-2.269588712890614
7.543880683493759,-3.1650524738327235,-2.533747876267859,-2.3585900367650194
7.512230158755432,-3.279544004254153,-2.5573337766355095,-2.4544212208230998
7.4794347187128905,-3.3948220380428378,-2.5818779888437406,-2.5571426836317106
7.445486498332462,-3.5106772939938904,-2.607449415680058,-2.6667812746365303
7.410379725392524,-3.6268668807627544,-2.634117228426423,-2.783327085464019
7.374111056584896,-3.743112092933643,-2.661950499281063,-2.9067304687765185
7.336679935655559,-3.859096434860673,-2.6910178039688284,-3.036899350187797
7.298088971306953,-3.974463924795687,-2.721386797470706,-3.1736969131491293
7.258344332058996,-4.088817722575349,-2.7531237666021977,-3.316939724319189
7.2174561548332425,-4.2017191108076535,-2.7862931638453894,-3.466396347131376
7.175438963725166,-4.3126868424503,-2.8209571273167033,-3.6217864640452686
7.132312095300663,-4.421196847808228,-2.857174991957156,-3.7827804940515293
7.088100126822581,-4.5266822727855205,-2.8950027968976713,-3.9489996530429354
7.042833304094725,-4.62853379981987,-2.9344927934281007,-4.1200163633341536
6.996547966096527,-4.726100186017718,-2.975692957061442,-4.295354878617525
6.949286964236349,-4.818688942824451,-3.0186465058476175,-4.474491956671834
6.901100074808105,-4.905567081708995,-3.063391425414336,-4.656857389713858
6.852044403991015,-4.985961864579461,-3.1099599993114744,-4.841834197493221
6.80218478534522,-5.059061529618265,-3.1583783412864066,-5.0287583074035584
6.751594170049038,-5.124016016083417,-3.2086659243604423,-5.216917595117768
6.700354009888204,-5.179937787549576,-3.26083510031162,-5.405550243849801
6.648554632012708,-5.225902952638788,-3.314890602750118,-5.59384250404284
6.59629560248632,-5.260953003668794,-3.3708290277905464,-5.780926099283075
6.543686072449632,-5.28409763149214,-3.428638288783377,-5.965875725900895
6.490845096134711,-5.294319219021956,-3.488297046042386,-6.147707324935563
6.437901903944492,-5.290579750330417,-3.5497741192917416,-6.325378050406348
6.3849961064411875,-5.271830973269425,-3.613027899795805,-6.49778909231992
6.332277796708493,-5.237028690080371,-3.6780057907190042,-6.663792700935416
6.27990750980769,-5.185151984561473,-3.7446437177283585,-6.822204854044753
6.228055989962075,-5.11522798510582,-3.812865766268806,-6.9718249566515595
6.176903710111017,-5.026362373331823,-3.8825840158353215,-7.111463705927193
6.126640086377699,-4.9177752560319306,-3.9536986528945937,-7.239979746942228
6.07746233381738,-4.7888412307661925,-4.026098450364016,-7.356324965924098
6.0295739215097175,-4.639131543477823,-4.0996617000232565,-7.459597242722764
5.983182606074939,-4.468455265273752,-4.1742576724504845,-7.54909830057569
5.938498053422201,-4.27689556440663,-4.249748655456242,-7.624393107367927
5.895729097778134,-4.0648366145444506,-4.325992586529921,-7.685366316793709
5.85508073163269,-3.832976656479138,-4.402846249697858,-7.7322707349392905
5.816750965067898,-3.582323357308197,-4.480168957047251,-7.7657629730078135
5.780927731494816,-3.3141689168596784,-4.557826586777329,-7.7869224192798505
5.7477860423262195,-3.0300442328198227,-4.635695810970128,-7.797251400141592
5.717485599998021,-2.731653578551505,-4.713668324971543,-7.798656695494696
5.690169064212506,-2.4207932905413707,-4.79165489192649,-7.793415079928775
5.665961131307092,-2.0992595073834046,-4.869589042725778,-7.784127866898002
5.644968536233257,-1.7687507344294255,-4.947430321394758,-7.773671172399955
5.627281028888963,-1.430770777511471,-5.025167033118757,-7.765149563446599
5.612973321113849,-1.0865364417734502,-5.1028185287532235,-7.761860888498621
5.6021079566961145,-0.7368925451944002,-5.18043713763821,-7.767279566469412
5.5947390312441705,-0.3822345732958887,-5.2581099333029035,-7.7850647290309825
5.590916685511211,-0.022437056132596667,-5.3359605805932135,-7.819098681557306
5.5906923149498855,0.3432161696768108,-5.414151567408787,-7.8735603776145835
5.594124476646654,0.7161048503980891,-5.4928871711849325,-7.953037917856923
5.601285525150635,1.0983532355937795,-5.572417550363502,-8.062682838686431
5.612269057506572,1.4929210096556478,-5.653044378750367,-8.208405286760755
5.627198267603129,1.9036972872334572,-5.735128431617974,-8.397098507950682
5.646235240475463,2.335567964845457,-5.8190994166974805,-8.636852588161503
5.669590920123918,2.794371867569766,-5.9054679425790955,-8.937045779044928
5.697534638799615,3.286532533396372,-5.994838400369545,-9.308029104539038
5.7303999641335785,3.8178603226824466,-6.087918691414935,-9.759720425169151
5.768578567360403,4.390397473260054,-6.185515895666627,-10.297561799742217
5.8124825420930035,4.9950600631666,-6.288491513664049,-10.912721872192309
5.86243314272467,5.596795103353423,-6.397618732385972,-11.561911296828661
5.918401093758204,6.112458411870644,-6.513237845354259,-12.136838638761319
5.979525677876911,6.402597062931525,-6.634606231741872,-12.452187561022846
6.043551648506226,6.33408554807118,-6.7591281073521,-12.330447950246313
6.106892503986939,5.912775994213705,-6.882432586854563,-11.782017015269348
6.1660202639290755,5.2994449494657525,-7.000252757007257,-11.02395916880381
6.219014713423733,4.656999181855741,-7.110492348695295,-10.270734807715348
6.265584705242291,4.063514981817679,-7.213199696772448,-9.619798550360507
6.306219855060467,3.536645709322782,-7.309397682276053,-9.088271856431973
6.341586312153695,3.070567855771562,-7.400280400840373,-8.663787803899904
6.372291990711411,2.6538752592930552,-7.486918278879372,-8.328227386266798
6.398830743304342,2.27558598528622,-7.57020055274204,-8.06522905491338
6.421586603157204,1.926594525331335,-7.650852843291174,-7.861694172011835
6.4408525484105175,1.5997044154678566,-7.729469785011292,-7.707525090566759
6.456849592565196,1.2893156168263078,-7.80654503591696,-7.594996465620999
6.469742748733459,0.9910933880875762,-7.8824950005731695,-7.518159632153465
6.479653682614335,0.7017008014049324,-7.9576765968947045,-7.472364291047897
6.486670690628384,0.4186029376071718,-8.032400239805183,-7.453892325866782
6.490856720004456,0.13993156068093793,-8.106939163063851,-7.45967944320559
6.492256035611265,-0.13560354256843743,-8.181535957495907,-7.487101293388981
6.490900000185581,-0.4087687166257716,-8.256406970429797,-7.53380623124222
6.486812313019324,-0.6798361273406159,-8.33174503274222,-7.597582455525815
6.480013951745918,-0.9485974643920206,-8.407720857297477,-7.676251894545511
6.470527977101998,-1.2143692278560292,-8.484483376242933,-7.767586821387855
6.458384284823437,-1.475996745144866,-8.562159244456812,-7.869247897807811
6.443624317371989,-1.7318638328787321,-8.64085172343489,-7.978744217314205
6.426305679043201,-1.9799146521832576,-8.720639165608032,-8.093416905070853
6.406506532521369,-2.2176934768008274,-8.801573334658741,-8.210447837615057
6.384329597753361,-2.4424065349630704,-8.883677813034891,-8.32689400171387
6.35990553240373,-2.651007684533279,-8.96694675305203,-8.43974599458274
6.333395455558398,-2.840306570860852,-9.051344212997858,-8.54600650026114
6.304992389849789,-3.0070945329500396,-9.136804278000469,-8.642781868905876
6.274921444520289,-3.1482805522523503,-9.223232096689527,-8.727377986729335
6.243438638997765,-3.2610277322996133,-9.310505876556821,-8.797391225490907
6.2108283616747695,-3.342880685336069,-9.39847978881173,-8.850786799505594
6.177399554821409,-3.391875809123858,-9.486987656806786,-8.885960074174063
6.14348079673017,-3.406629176245171,-9.575847257548526,-8.901780293748494
6.109414504967718,-3.3863996081497048,-9.664865060486012,-8.897619443998426
6.075550508886221,-3.331126443766185,-9.753841254925996,-8.873370307638362
6.0422392444485595,-3.2414420048545813,-9.84257495800238,-8.82945671623246
6.009824824400014,-3.1186580502794436,-9.930869525164706,-8.766836093703196
5.97863824389722,-2.9647245194633167,-10.018537886101738,-8.686991016339745
5.948990998702587,-2.782158735781726,-10.105407796265135,-8.591904334268246
5.92116941134477,-2.573944757983828,-10.191326839607818,-8.48401259881862
5.895429963764931,-2.343405739781491,-10.276166965596005,-8.366135335800095
5.871995906367116,-2.0940561743824087,-10.359828318954007,-8.241382271510329
5.851055344623291,-1.8294444778995578,-10.44224214166911,-8.113045468509407
5.8327608998442955,-1.5529982926427603,-10.523372596354205,-7.984486935373617
5.817230916917868,-1.2678845117622148,-10.603217465707942,-7.859033647535852
5.804552071800246,-0.9768934413356363,-10.6818078021833,-7.739890884382603
5.794783137386889,-0.6823524578231126,-10.759206711027126,-7.63008192787958
5.787959612808658,-0.3860700101878387,-10.835507530305922,-7.5324184745269935
5.78409891270678,-0.08930679288906196,-10.910831715051192,-7.449502601648921
5.783205844777889,0.2072320265906208,-10.98532674106768,-7.383758545638404
5.785278165043795,0.5033913243449897,-11.059164326524066,-7.337491251398569
5.790312078287245,0.799555662400892,-11.132539239038051,-7.312968650912709
5.798307634911255,1.0966422745062239,-11.205668925547178,-7.31252571586209
5.809274057656316,1.3961050913202924,-11.278794182705798,-7.338690202152196
5.823235108569519,1.699956917836362,-11.35218108472732,-7.394332335294316
5.840234677747882,2.010816313028363,-11.426124408080263,-7.4828430796965915
5.860342840878166,2.3319848568673915,-11.500952838877229,-7.608347397785296
5.88366268944684,2.6675581650532516,-11.577036312855082,-7.775958423230774
5.910338271097372,3.0225671624377166,-11.65479589708739,-7.992071693751796
5.94056394272175,3.4031271265954963,-11.734716614024908,-8.26467530957007
5.974595213987705,3.8165221833024794,-11.817363367120608,-8.603586694401375
6.01276043582073,4.271027080492964,-11.903399234064622,-9.020357278845418
6.05547070662566,4.77496033728386,-11.993602806853076,-9.527165654555128
6.103220309998498,5.333747689057331,-12.088874463398627,-10.133030799682002
6.1565577868890715,5.9423018275376025,-12.190204771395447,-10.833619772631558
6.215980805164447,6.567976352340925,-12.298540969121762,-11.588016441426078
6.281660568687856,7.121287055056152,-12.414421133536022,-12.278336578130485
6.352873439238418,7.435972437268054,-12.537204499317326,-12.681682721739064
6.427233163611098,7.337807917051687,-12.664021326534717,-12.564056673825686
6.500611242781615,6.8267154737893,-12.789661893272974,-11.929390274231858
6.568878397519509,6.1085987740442285,-12.908955796015293,-11.05938400302449
6.629964385259951,5.381564951225169,-13.019549636045538,-10.218943821133895
6.6837800347722025,4.727687088851167,-13.121739074256876,-9.51270936434322
6.731056905660714,4.157444004652249,-13.216866167900308,-8.949530595434256
