th1 (rad),w1 (rad/s),th2 (rad),w2 (rad/s)
3.2742604976533376,-1.147602020948604,5.814453268474488,2.7326405087316132
3.2627844774438515,-1.0729601093183032,5.841779673561804,2.8310066148088944
3.2520548763506683,-0.9977059899778478,5.8700897397098935,2.930388103291429
3.2420778164508897,-0.922262968984068,5.899393620742808,3.030090238547689
3.232855186761049,-0.8471625087212595,5.929694523128285,3.1292900771692502
3.2243835616738363,-0.7730501945961366,5.960987423899978,3.227029915585559
3.216653059727875,-0.7006871110187991,5.993257723055833,3.3222166047480526
3.209646188617687,-0.6309448642120845,6.026479889103314,3.4136288793401137
3.2033367399755663,-0.5647925122806001,6.060616177896715,3.4999348025519024
3.1976888148527602,-0.5032739694757895,6.095615525922233,3.5797210292752593
3.1926560751580024,-0.44747512409615087,6.131412736214986,3.651534741627918
3.188181323917041,-0.39848098162314316,6.167928083631265,3.7139377735029857
3.1841965141008095,-0.3573245617382549,6.205067461366295,3.765570687994689
3.180623268483427,-0.3249308661259434,6.242723168246242,3.8052226223458465
3.1773739598221673,-0.302060699732913,6.2807753944697,3.831900934951302
3.174353352824838,-0.2892601035769136,6.3190944038192125,3.8448935307288252
3.171460751789069,-0.28682129604205053,6.357543339126501,3.843816625250939
3.168592538828648,-0.2947601201569776,6.395981505379011,3.8286418711371097
3.1656449376270785,-0.31281310240139354,6.434267924090381,3.7996991413600276
3.1625168066030644,-0.3404546673585229,6.472264915503982,3.757654432803693
3.159112259929479,-0.37693235072394105,6.509841459832019,3.703465663541057
3.15534293642224,-0.42131558876470754,6.54687611646743,3.6383218823557395
3.1511297805345926,-0.47255228382449577,6.583259335290987,3.5635730505978302
3.146404257696348,-0.5295270453463138,6.618895065796965,3.4806578747818526
3.141108987242885,-0.5911156935363718,6.653701644544784,3.3910362889810903
3.135197830307521,-0.6562319851600124,6.687612007434595,3.29613148844099
3.128635510455921,-0.7238641868578919,6.720573322319005,3.1972843792104655
3.1213968685873423,-0.7931007229821382,6.7525461661111095,3.095721365133053
3.113465861357521,-0.8631454159337638,6.78350337976244,2.9925348362431583
3.1048344071981835,-0.9333237053607413,6.8134287281248715,2.8886746807367407
3.0955011701445763,-1.003081680443262,6.842315474932239,2.784948608701959
3.0854703533401437,-1.0719798616465384,6.870164961019258,2.6820289564686184
3.0747505547236784,-1.139683529794134,6.896985250583944,2.5804638081038203
3.063353719425737,-1.2059511244858359,6.922789888664982,2.4806906010182432
3.0512942081808787,-1.2706219045182539,6.947596794675165,2.383050775969763
3.038587989135696,-1.3336037381127526,6.971427302434862,2.2878044191718234
3.025251951754569,-1.3948616043412998,6.9943053466265805,2.1951441857713587
3.011303335711156,-1.4544071542464314,7.016256788484294,2.105208072037893
2.9967592641686918,-1.512289503107835,7.037308869204673,2.0180908156038577
2.9816363691376133,-1.5685872990378344,7.057489777360711,1.9338538550943705
2.965950496147235,-1.6234020290857638,7.076828315911655,1.8525338825463455
2.9497164758563774,-1.6768524729666108,7.095353654737118,1.7741500851414795
2.932947951126711,-1.7290701877314953,7.113095155588533,1.6987102071732374
2.915657249249396,-1.7801958968455789,7.130082257660265,1.6262155774525082
2.8978552902809405,-1.8303766584521979,7.14634441343479,1.5566652483433623
2.8795515236964184,-1.8797636957522421,7.161911065918224,1.4900593854246513
2.860753886738896,-1.9285107843239209,7.17681165977247,1.426402035066364
2.8414687788956567,-1.9767731047438668,7.1910756801231335,1.3657033835141013
2.8217010478482183,-2.024706482685369,7.204732713958275,1.3079816070437316
2.8014539830213647,-2.072466951943958,7.217812530028712,1.2532643994030317
2.7807293135019253,-2.120210588133133,7.230345174022743,1.2015902506788805
2.759527207620594,-2.1680935719162315,7.242361076529532,1.1530095412019337
2.7378462719014314,-2.216272450569915,7.253891171941551,1.1075855052195667
2.715683547395732,-2.2649045754850055,7.264967026993747,1.0653951118096088
2.693034501640882,-2.3141487010304647,7.275620978111843,1.0265299047829448
2.6698930146305773,-2.3641657371898344,7.285886277159673,0.9910968390086079
2.646251357258679,-2.4151196546844362,7.295797245549759,0.9592191475496981
2.6221001607118346,-2.4671785470720557,7.305389437025256,0.9310372720711502
2.597428375241114,-2.5205158596797332,7.314699809745967,0.9067098880065108
2.572223216644317,-2.5753118002862596,7.323766908626032,0.8864150557596944
2.5464700986414543,-2.631754951254434,7.332631059183629,0.8703515295273881
2.52015254912891,-2.6900441072891788,7.3413345744789025,0.8587402558245314
2.493252108056018,-2.7503903670127756,7.349921977037148,0.8518260939882119
2.46574820438589,-2.8130195097697293,7.35844023797703,0.8498797900747325
2.437618009288193,-2.8781746908844417,7.3669390358777775,0.853200232483261
2.4088362623793484,-2.9461194879302814,7.37547103820261,0.8621170105043233
2.3793750675000456,-3.0171413256542405,7.384092208307654,0.8769932829145021
2.349203654243503,-3.0915552951362297,7.392862141136798,0.8982289381667209
2.318288101292141,-3.169708358858262,7.401844430518466,0.9262639834806667
2.286591017703558,-3.2519838900957327,7.411107070353273,0.9615820259132212
2.254071178802601,-3.3388064204206063,7.420722890612405,1.004713586494376
2.220683114598395,-3.430646344070057,7.430770026477348,1.056238790822259
2.1863766511576945,-3.5280241224027105,7.44133241438557,1.1167886624529875
2.1510964099336674,-3.631513198537299,7.4525003010101,1.1870437411928527
2.1147812779482944,-3.741740298731027,7.464370738422029,1.267727952984376
2.077363874960984,-3.8593809528535306,7.477048017951873,1.3595944151503876
2.0387700654324488,-3.985146750245374,7.490643962103377,1.463397943600247
1.998918597929995,-4.119758837940049,7.505277941539379,1.5798461290221644
1.9577210095505946,-4.263899197792611,7.521076402829601,1.7095166004761906
1.9150820175726684,-4.418127077805712,7.538171568834363,1.8527221985672957
1.8709007467946113,-4.5827426756477045,7.556698790820036,2.0092983937768927
1.8250733200381342,-4.757574829533309,7.576791774757805,2.178279988559101
1.777497571742801,-4.941667532973713,7.598574574643395,2.3574320017478576
1.7280808964130638,-5.132849997520229,7.6221488946608735,2.54261483584168
1.6767523964378614,-5.327213181577534,7.64757504301929,2.727019937359963
1.623480264622086,-5.518605695732295,7.67484524239289,2.9004426810097645
1.568294207664763,-5.69841659103073,7.703849669202988,3.0489820410581294
1.5113100417544558,-5.856080127531141,7.7343394896135695,3.155797308292359
1.4527492404791444,-5.980726750827338,7.765897462696493,3.2035362447745803
1.392941972970871,-6.063926199580137,7.7979328251442395,3.1783624263550454
1.3323027109750696,-6.102521423463611,7.8297164494077895,3.07414689468559
1.2712774967404334,-6.099907598860968,7.860457918354645,2.894450195955948
1.2102784207518238,-6.064801792061668,7.889402420314204,2.6508883597073623
1.1496304028312072,-6.008264530665604,7.915911303911278,2.35892850015265
1.0895477575245511,-5.940740788359166,7.9395005889128045,2.033630773875874
1.0301403496409596,-5.870335519382976,7.959836896651563,1.6871044928331786
0.9714369944471298,-5.80240211346198,7.976707941579894,1.3278353063810813
0.91341297331251,-5.739906408742604,7.989986294643705,0.9611456221961587
0.856013909225084,-5.684037811302877,7.999597750865667,0.5900413918879783
0.7991735311120552,-5.6347760417259645,8.005498164784546,0.21602328296204065
0.7428257706947956,-5.591317283339794,8.007658397614167,-0.16028518137539266
0.6869125978613977,-5.55236118482347,8.006055545800413,-0.5386998323300208
0.631388986013163,-5.516291839634479,8.000668547477112,-0.9191885571013867
0.5762260676168182,-5.481287682751346,7.9914766619060975,-1.3016903163757394
0.5214131907893047,-5.445387779500605,7.97845975874234,-1.6860058102763624
0.46695931299429866,-5.406533722795985,7.961599700639576,-2.071736190908826
0.4128939757663388,-5.362599801182367,7.940882338730488,-2.4582550316920453
0.35926797775451513,-5.311419447126673,7.916299788413568,-2.844704827472513
0.3061537832832484,-5.250812772850993,7.887852740138842,-3.230013106150872
0.25364565555473845,-5.178617754672183,7.855552609077334,-3.6129254016027463
0.20185947800801662,-5.0927259628798325,7.819423355061306,-3.9920533766593476
0.1509322183792183,-4.9911224160143774,7.779502821294713,-4.365936666680939
0.10102099421907453,-4.871928040632632,7.735843454627903,-4.73311681191476
0.0523017138127482,-4.733442296261031,7.688512286508756,-5.092221172132828
0.00496729085013789,-4.574182792077701,7.637590074787427,-5.442054147207047
-0.04077453707063912,-4.392918223625407,7.583169533315357,-5.78169251832733
-0.08470371930689319,-4.188690758024181,7.525352608132084,-6.110581412630274
-0.126590626887135,-3.960824159221461,7.464246794005781,-6.428627385875339
-0.16619886847934962,-3.7089145244183377,7.399960520147028,-6.736285471165681
-0.203288013723533,-3.4328015388653994,7.332597665435371,-7.034637733760155
-0.237616029112187,-3.1325196912562645,7.262251288097769,-7.325461751845177
-0.2689412260247496,-2.8082310239022394,7.188996670579317,-7.611288154945744
-0.29702353626377204,-2.4601439926252295,7.112883789029859,-7.895446197452414
-0.32162497619002434,-2.0884275622530843,7.033929327055335,-8.182094016432695
-0.3425092518125552,-1.6931373027019203,6.952108386891008,-8.476223261030919
-0.3594406248395744,-1.2741842018236835,6.867346154280699,-8.783611492959077
-0.37218246685781126,-0.8314035649232581,6.779510039351108,-9.110661168633971
-0.3804965025070438,-0.3648326417623059,6.688403427664769,-9.463994431308404
-0.3841448289246669,0.12459857730012691,6.593763483351685,-9.849539988801256
-0.3828988431516656,0.6335939416279077,6.495268083463673,-10.270615122307769
-0.37656290373538653,1.1536357871393574,6.392561932240595,-10.724171059721296
-0.36502654586399297,1.6660308089794784,6.2853202216433814,-11.194162724295083
-0.3483662377741982,2.1348954510467926,6.173378594400431,-11.641950495247217
-0.32701728326373025,2.5016279008718927,6.056959089447958,-11.99832758234454
-0.3020010042550113,2.691908651628882,5.936975813624513,-12.171958061771214
-0.2750819177387225,2.648392078804823,5.815256233006801,-12.09202674179957
-0.24859799695067425,2.3748706979350196,5.694335965588805,-11.765931357211878
-0.22484928997132406,1.9404297478490216,5.576676652016686,-11.283144837053529
-0.20544499249283385,1.4317023068342907,5.463845203646151,-10.751234155831876
-0.19112796942449095,0.9105753711203881,5.356332862087832,-10.241843584059529
-0.18202221571328708,0.40797722306532236,5.253914426247237,-9.785306524689865
-0.17794244348263386,-0.06495201816109986,5.156061361000338,-9.386978885238996
-0.17859196366424485,-0.5064050269132673,5.062191572147948,-9.041353242746185
-0.18365601393337752,-0.9180624853421558,4.971778039720486,-8.739537292746073
-0.19283663878679907,-1.3024466533154142,4.884382666793026,-8.472418452224826
-0.20586110531995322,-1.6618830048897977,4.799658482270777,-8.231773614421456
-0.2224799353688512,-1.9981725100033783,4.717340746126562,-8.010535017009488
-0.24246166046888498,-2.312555209462959,4.637235395956467,-7.802751667716304
-0.2655872125635146,-2.605783571295137,4.559207879279304,-7.603465011205869
-0.291645048276466,-2.878230171063953,4.483173229167246,-7.408579748257906
-0.32042734998710554,-3.1299993088275877,4.409087431684667,-7.214754680356563
-0.3517273430753814,-3.361030727175637,4.336939884881102,-7.0193168355573645
-0.38533765034713774,-3.5711909663001657,4.266746716525528,-6.820194626586858
-0.4210495600101394,-3.760350703097773,4.19854477025966,-6.615863964194956
-0.45865306704111714,-3.928447490553874,4.13238613061771,-6.405301638710271
-0.49793754194665585,-4.075533813504956,4.068333114230607,-6.187941472533926
-0.5386928800817055,-4.201810760034589,4.0064536995052675,-5.963630142895596
-0.5807109876820513,-4.307648010218816,3.9468173980763117,-5.732580915147916
-0.6237874677842394,-4.3935912666174435,3.8894915889248325,-5.495324685836526
-0.6677233804504139,-4.460358646227856,3.8345383420664674,-5.252658649376892
-0.7123269669126925,-4.508827868510669,3.7820117555726984,-5.005593549040139
-0.7574152455977992,-4.5400162705111855,3.731955820082297,-4.7553008581178515
-0.802815408302911,-4.555055742196153,3.6844028115011183,-4.503061389155103
-0.8483659657248726,-4.555164608241461,3.639372197609567,-4.2502167914667766
-0.8939176118072871,-4.541618307629069,3.5968700296948994,-3.9981252199751025
-0.9393337948835778,-4.515720469104495,3.5568887774951485,-3.748122191399208
-0.9844909995746227,-4.47877568049315,3.5194075555811564,-3.5014873309867807
-1.0292787563795542,-4.432064932197372,3.4843926822712885,-3.259417389943038
-1.073599405701528,-4.37682440383989,3.451798508371858,-3.0230056071970157
-1.1173676497399267,-4.31422797585681,3.421568452299888,-2.7932272177084725
-1.1605099294984949,-4.245373596913218,3.393636180122803,-2.5709306848822386
-1.202963665467627,-4.171273430300698,3.367926873273981,-2.3568340630153704
-1.244676399770634,-4.092847540822039,3.344358532643827,-2.151525778783257
-1.2856048751788545,-4.010920767627629,3.3228432748559946,-1.9554690566495165
-1.3257140828551308,-3.926222355047642,3.3032885842894997,-1.7690091968832373
-1.3649763064056073,-3.8393878777894965,3.285598492320667,-1.5923829394642728
-1.4033701851835023,-3.750962992814267,3.2696746629260245,-1.4257292039681526
-1.440879815111645,-3.66140857099369,3.255417370886343,-1.2691005753295412
-1.477493900821582,-3.571106800420527,3.2427263651330476,-1.1224749991409868
-1.5132049688257871,-3.480367903537044,3.231501615141638,-0.9857672496613783
-1.5480086478611577,-3.3894371663646594,3.221643942645024,-0.8588398321445221
-1.5819030195248043,-3.2985020353702255,3.213055544323579,-0.7415130732299047
-1.6148880398785066,-3.20769909230005,3.2056404135912797,-0.633574235416113
-1.6469650308015071,-3.1171207671436556,3.1993046712371185,-0.5347855620668726
-1.6781362384729437,-3.0268216927245004,3.19395681561645,-0.444891217298332
-1.7084044554001887,-2.9368246405411482,3.1895079034434666,-0.3636231307953238
-1.7377727018056002,-2.8471260063230686,3.185871672135513,-0.2907057921364324
-1.7662439618688308,-2.757700835702478,3.182964614214149,-0.22586006401972653
-1.7938209702258556,-2.6685073961207215,3.1807060135739516,-0.16880610049388242
-1.8205060441870629,-2.579491311440243,3.1790179525690125,-0.11926546652337958
-1.8463009573014653,-2.4905892816518205,3.177825297903779,-0.07696256042219712
-1.8712068501179835,-2.4017324124881902,3.177055672299557,-0.041625442130311496
-1.8952241742428655,-2.3128491795775967,3.176639417878254,-0.012986168978405144
-1.9183526660386414,-2.2238680498259447,3.1765095561884698,0.009219262773394504
-1.940591346536901,-2.1347197797531234,3.1766017488162035,0.025251277226904973
-1.9619385443344322,-2.04533940718298,3.1768542615884727,0.03536729169004481
-1.982391938406262,-1.9556679495499325,3.177207934505373,0.03982242298849213
-2.0019486179017614,-1.865653819578524,3.177606158735258,0.03887025535931427
-2.0206051560975467,-1.775253967532867,3.1779948612888513,0.0327636072117761
-2.0383576957728753,-1.6844347588059185,3.178322497360969,0.02175524411943055
-2.0552020433609344,-1.593172596369469,3.178540049802163,0.006098496259493057
-2.071133769324629,-1.5014542994403826,3.178601034764758,-0.01395225009839212
-2.086148312319033,-1.4092772524118007,3.1784615122637745,-0.038141205886145696
-2.100241084843151,-1.3166493413141886,3.178080100204913,-0.06621098486162541
-2.113407578256293,-1.2235886983972646,3.1774179903562967,-0.09790255864345836
-2.1256434652402656,-1.1301232784128863,3.1764389647698623,-0.13295534914675933
-2.1369446980243945,-1.0362902924000572,3.175109411278395,-0.1711074392219931
-2.147307600948395,-0.9421355258631892,3.173398336886175,-0.2120958774327247
-2.156728956207027,-0.8477125679444726,3.171277378111848,-0.25565705061958405
-2.165206081886472,-0.7530819764199709,3.168720807605652,-0.3015270982352069
-2.1727369016506715,-0.6583104001626318,3.1657055366233,-0.34944234521496
-2.179320005652298,-0.5634696763442916,3.1622111131711503,-0.3991397349611454
-2.184954702415741,-0.46863591446699293,3.158219715821539,-0.4503572502593274
-2.189641061560411,-0.3738885738007386,3.1537161433189453,-0.5028343168696519
-2.193379947298418,-0.27930953549364146,3.148687800150249,-0.5563121913308776
-2.1961730426533546,-0.18498216604159565,3.14312467823694,-0.6105343403805913
-2.1980228643137707,-0.09099036542746575,3.137019334833134,-0.6652468236257527
-2.1989327679680453,0.0025824085790636664,3.1303668665968765,-0.7201986931533486
-2.1989069438822546,0.0956541485276211,3.123164879665343,-0.7751424233343004
-2.1979504023969785,0.18814534463949828,3.115413455432,-0.829834381085936
-2.1960689489505834,0.2799800749004793,3.1071151116211406,-0.8840353415293273
-2.1932691482015785,0.3710871367641103,3.0982747582058474,-0.9375110467704608
-2.1895582768339374,0.4614012139204384,3.0888996477381427,-0.9900327971217602
-2.184944264694733,0.5508640659666334,3.078999319766925,-1.0413780552803218
-2.1794356240350665,0.6394257236196544,3.068585539214122,-1.091331035668914
-2.17304136679887,0.7270456679352322,3.0576722288574327,-1.1396832441692575
-2.1657709101195177,0.8136939693453766,3.0462753964157403,-1.1862339285519607
-2.157633970426064,0.8993523615499663,3.034413057130221,-1.2307903975449193
-2.1486404468105644,0.9840152265559039,3.022105153154772,-1.273168166930358
-2.1388002945450055,1.0676904703990648,3.009373471485468,-1.3131908942811952
-2.128123389841015,1.1504002740571042,2.996241562542656,-1.3506900696255615
-2.116619387100444,1.232181710342831,2.9827346618464,-1.3855044369200953
-2.1042975699970157,1.3130872246181142,2.968879617477199,-1.4174791300179823
-2.0911666977508347,1.3931849843917374,2.9547048261770192,-1.446464516070584
-2.0772348479069174,1.4725591096748554,2.9402401810163132,-1.4723147482632457
-2.0625092568101686,1.5513098018434954,2.925517033533681,-1.494886037829121
-2.0469961587917336,1.6295533932838768,2.9105681731553896,-1.5140346619580975
-2.030700624858895,1.7074223429856048,2.8954278265358084,-1.5296147292849702
-2.013626401429039,1.7850652043408408,2.8801316792429588,-1.54147572809453
-1.9957757493856305,1.8626465906560563,2.8647169219620134,-1.5494598844336858
-1.97714928347907,1.9403471613185765,2.8492223231176768,-1.5533993583794987
-1.9577458118658844,2.018363647255059,2.833688329533882,-1.553113307346183
-1.9375621753933339,2.0969089283445888,2.81815719646042,-1.5484048462211704
-1.9165930861098879,2.1762121678360664,2.8026731479982083,-1.539057936098086
-1.8948309644315273,2.256518999525236,2.7872825686372273,-1.524834237302729
-1.872265774436275,2.338091752330256,2.7720342262642,-1.5054699692401488
-1.8488848569129723,2.421209683713383,2.7569795265717985,-1.4806728303527428
-1.8246727600758386,2.506169177765018,2.742172798268271,-1.4501190472715142
-1.7996110682981883,2.5932838452324063,2.727671607795556,-1.413450644235283
-1.7736782298458642,2.6828844408153443,2.7135371013532033,-1.3702730532609095
-1.7468493854377107,2.7753184871461185,2.6998343708205943,-1.3201532235704199
-1.7190962005662496,2.870949464611432,2.68663283858489,-1.262618436479554
-1.6903867059201352,2.97015539142237,2.6740066542200944,-1.1971560900388099
-1.6606851520059114,3.0733265794631346,2.662035093319706,-1.1232147862184911
-1.62995188621128,3.1808623096540285,2.6508029454575213,-1.0402071311812375
-1.5981432631147399,3.293166128323781,2.640400874145709,-0.9475147431351286
-1.565211601831502,3.41063942768962,2.6309257267143575,-0.8444960465400692
-1.5311052075546059,3.5336729457114067,2.6224807662489567,-0.7304975062523169
-1.4957684780974918,3.662635813075472,2.6151757911864335,-0.604869005607946
-1.4591421199667371,3.797861801081033,2.609127101130354,-0.46698407736386083
-1.4211635019559268,3.9396325003288464,2.6044572603567153,-0.31626562812221737
