th1 (rad),w1 (rad/s),th2 (rad),w2 (rad/s)
4.465711379636033,0.9073119378595695,1.6059904678082615,-0.43621624422125915
4.474784499014628,0.9979612020085268,1.601628305366049,-0.44479382643491244
4.484764111034714,1.0895859837644217,1.5971803671016997,-0.4517624099974218
4.495659970872358,1.1822323055709325,1.5926627430017255,-0.45707147547336013
4.507482293928068,1.2759285534614517,1.588092028246992,-0.46070289717885965
4.520241579462683,1.3706818527777256,1.5834849992752034,-0.46267675529597263
4.53394839799046,1.4664741108183326,1.5788582317222437,-0.4630576676794798
4.548613139098643,1.5632578094095073,1.5742276550454488,-0.461961522096139
4.564245717192739,1.6609516739268855,1.5696080398244874,-0.4595624226988098
4.580855233932008,1.7594363957705497,1.5650124155974994,-0.4560995862034974
4.598449597889713,1.8585506408726138,1.5604514197354644,-0.4518838362319998
4.61703510429844,1.9580876342370666,1.5559325813731444,-0.4473032536401099
4.63661598064081,2.057792664869534,1.5514595488367433,-0.44282745412522656
4.657193907289505,2.157361900133808,1.547031274295491,-0.4390098926431293
4.6787675262908435,2.256442925433583,1.5426411753690596,-0.43648755046681215
4.70133195554518,2.3546374250235442,1.5382762998643915,-0.43597736026290124
4.724878329795415,2.4515063834803206,1.5339165262617624,-0.4382687829100791
4.749393393630219,2.5465781069071847,1.5295338384326616,-0.44421208071831786
4.774859174699291,2.6393592331398312,1.5250917176254783,-0.45470204443289947
4.8012527670306895,2.7293487204970273,1.5205446971811494,-0.47065722743767757
4.828546254235659,2.816054580669734,1.5158381249067725,-0.49299511073484875
4.856706800042357,2.8990128663488304,1.510908173799424,-0.5226040444411156
4.885696928705845,2.9778081592909404,1.505682133355013,-0.5603132497635256
4.9154750102987546,3.052094558130784,1.5000790008573777,-0.6068625712404739
4.945995955880062,3.1216159709511104,1.494010375144973,-0.6628739854592479
4.977212115589573,3.186224410431876,1.4873816352903804,-0.728827040917798
5.009074359693892,3.2458950004717404,1.4800933648812025,-0.8050403736519793
5.041533309698609,3.300736553445168,1.4720429611446826,-0.8916611833715931
5.074540675233061,3.3509968710891296,1.4631263493109667,-0.9886640636518408
5.108050643943953,3.3970623424267865,1.4532397086744484,-1.0958598928054624
5.142021267368221,3.4394519195095543,1.4422811097463937,-1.2129146828982127
5.176415786563316,3.4788060874784352,1.4301519629174115,-1.3393774565925654
5.2112038474381,3.515871940867337,1.416758188351486,-1.4747154925820032
5.2463625668467735,3.5514858674502503,1.402011033425666,-1.6183547596389778
5.281877425521276,3.5865555752884943,1.385827485829276,-1.7697231256564645
5.317742981274161,3.622043256691387,1.3681302545727114,-1.9282940138239448
5.3539634138410745,3.658951575737246,1.348847314434472,-2.0936285638550594
5.390552929598447,3.6983139345601774,1.3279110287959213,-2.265414978526972
5.427536068944049,3.7411901787349153,1.3052568790106516,-2.443504505083924
5.464947970731398,3.788668612158521,1.2808218339598123,-2.627944324089326
5.502834656852984,3.8418749703203128,1.254542390718919,-2.8190084190407045
5.541253406556186,3.901988897548902,1.226352306528512,-3.017228233412393
5.580273295531676,3.970268520600633,1.196180024194388,-3.223425577887858
5.619975980737682,4.048083920967133,1.1639457684155095,-3.438750849016578
5.6604568199473535,4.136960674822562,1.1295582599253438,-3.664730194736001
5.701826426695579,4.238635117560701,1.0929109579779837,-3.903325829918746
5.744212777871186,4.355123507237273,1.0538776996787962,-4.157014212900787
5.787764012943559,4.488807582767918,1.0123075575497884,-4.428887001055749
5.832652088771239,4.642538597551262,0.9680186875392309,-4.722778923281529
5.879077474746752,4.819759473917665,0.9207908983064156,-5.043423214533162
5.927275069485929,5.024637253029112,0.870356666161084,-5.396624915137262
5.97752144201622,5.262178474719076,0.8163904170097114,-5.7894154137051315
6.030143226763411,5.538252246254511,0.75849626287266,-6.2300854978884
6.0855257492259565,5.859332650882116,0.696195407893776,-6.727837409714233
6.1441190757347774,6.2315142109773785,0.6289170337966337,-7.291437610784919
6.206434217844551,6.657801865789764,0.5560026576887844,-7.9254811743353475
6.273012236502448,7.13166418020038,0.47674784594543096,-8.621460203913704
6.344328878304452,7.623776327203103,0.3905332439062939,-9.339329813267554
6.4205666415764835,8.06135141212041,0.29713994577361835,-9.97869217689827
6.501180155697687,8.31683651064515,0.19735302400463564,-10.362995635787728
6.584348520804139,8.2572438407661,0.09372306764675836,-10.308354066355632
6.6669209592118,7.868309450337749,-0.00936047301679796,-9.79650452369493
6.745604053715177,7.291968551511141,-0.10732551825374725,-9.026057745508425
6.818523739230288,6.689897979134858,-0.1975860957088315,-8.221770145880972
6.885422719021637,6.144807932232475,-0.27980379716764125,-7.497980325744112
6.946870798343962,5.676431805605579,-0.3547836004250824,-6.881715881008108
7.003635116400018,5.27886933797649,-0.4236007592351635,-6.364776159693251
7.0564238097797825,4.939963244979784,-0.487248520832096,-5.930543578329591
7.10582344222958,4.647959690809493,-0.546553956615392,-5.563118937989105
7.152303039137675,4.393123634940611,-0.602185145995283,-5.249495245258685
7.196234275487082,4.1677642329073255,-0.6546800984478699,-4.979557948642325
7.237911917816155,3.9658715768653576,-0.7044756779342931,-4.745564181969513
7.2775706335848085,3.7827303005861075,-0.7519313197539882,-4.5415985598942346
7.31539793659067,3.614601116486963,-0.7973473053529305,-4.363126383294434
7.351543947755539,3.4584786629246915,-0.8409785691858749,-4.206652747021762
7.386128734384786,3.3119130718038323,-0.8830450966560925,-4.069468141878314
7.419247865102824,3.1728803532058025,-0.9237397780748757,-3.949458502318229
7.450976668634882,3.0396892069253343,-0.963234363098058,-3.8449614184955565
7.481373560704136,2.910914984407603,-1.0016839772830135,-3.754654735668795
7.510482710548212,2.7853541079397126,-1.0392305246397016,-3.6774675594120603
7.538336251627609,2.6619941288345816,-1.076005200233822,-3.6125066143712776
7.564956192915955,2.5399958511191967,-1.1121302663775348,-3.5589931488903863
7.590356151427147,2.418684683160126,-1.1477201978664386,-3.516207360213866
7.614542998258749,2.2975487178022846,-1.1828822714685774,-3.483438811283974
7.637518485436772,2.176241082437388,-1.217716659581417,-3.4599426258042434
7.659280896261145,2.0545839489283675,-1.2523160858394595,-3.4449024099833396
7.679826735750429,1.9325713747923643,-1.286765109939293,-3.4374018032464178
7.699152449498352,1.8103680146252845,-1.321139127971757,-3.436407179140535
7.717256129644605,1.6883008665964774,-1.3555031997631624,-3.4407641278838907
7.73413913831057,1.566841763073514,-1.3899108410420014,-3.4492097859370783
7.749807555941305,1.446579372588813,-1.4244029389013722,-3.4604017521597257
7.764273349667193,1.328181022205399,-1.4590069564229695,-3.4729623299166463
7.777555159889247,1.2123464756458258,-1.493736579722136,-3.485534469122956
7.789678624645705,1.099757552641281,-1.5285919244133657,-3.4968435667952127
7.800676200172118,0.9910287065247337,-1.5635603600813177,-3.5057578238128544
7.810586487237366,0.8866640075351889,-1.5986179383194463,-3.5113396479875254
7.819453127312718,0.7870252379008288,-1.6337313347993216,-3.5128818305469247
7.827323379691726,0.6923141231174665,-1.6688601531047909,-3.509924679892664
7.834246520922901,0.6025695106431774,-1.7039593999037175,-3.5022533836464524
7.840272216029333,0.5176781095990779,-1.738981933740182,-3.489877835357826
7.845448997125324,0.4373957188300419,-1.7738807120937603,-3.4729993510318597
7.849822954313624,0.36137498713605154,-1.808610705604079,-3.4519697550641304
7.853436704184984,0.2891956997915249,-1.8431304031547202,-3.427248235230893
7.8563286611829,0.2203941877536521,-1.877402885507029,-3.3993604322116613
7.8585326030604365,0.1544894223504368,-1.9113964898291456,-3.368862848386478
7.860077497283941,0.09100440455171155,-1.9450851183130102,-3.336314219761075
7.860987541329457,0.029482375865926808,-1.978448260510621,-3.3022542661214414
7.861282365088116,-0.030501941152610623,-2.0114708031718354,-3.267189350396278
7.860977345676591,-0.08933544292785608,-2.0441426966757983,-3.231584054524187
7.860083991247312,-0.14736325860526195,-2.0764585372210402,-3.1958574590979745
7.8586103586612595,-0.2048880193187242,-2.10841711181202,-3.1603829111169968
7.856561478468072,-0.262170997266008,-2.14002094092319,-3.1254901922808735
7.853939768495413,-0.3194344538148752,-2.1712758428459984,-3.091469189868321
7.850745423957264,-0.37686467656413597,-2.2021905347446817,-3.058574375137193
7.846976777191623,-0.4346153190873765,-2.2327762784960536,-3.0270295816277564
7.842630624000749,-0.49281077235767634,-2.263046574312331,-2.997032733907961
7.837702516277172,-0.5515493895028794,-2.2930169016514106,-2.9687603022280045
7.8321870223821435,-0.6109064560197369,-2.3227045046736907,-2.942371352053359
7.826077957821946,-0.6709368486351698,-2.3521282181942245,-2.9180111240719175
7.819368589335594,-0.7316773612482801,-2.3813083294349435,-2.8958141254205274
7.812051815723112,-0.7931486994264347,-2.410266470689149,-2.875906741727912
7.804120328728847,-0.8553571589545935,-2.4390255381064283,-2.8584093965840034
7.7955667571393015,-0.9182960115682413,-2.4676096320722682,-2.843438293804433
7.786383797023619,-0.9819466242768466,-2.4960440150103125,-2.831106781104716
7.776564330780851,-1.0462793391336056,-2.5243550828213595,-2.8215263735467633
7.766101537389515,-1.1112541390342996,-2.552570346556827,-2.8148074728025554
7.754988995999172,-1.176821122911643,-2.5807184212848524,-2.811059814881299
7.743220784770055,-1.24292081106452,-2.6088290194336654,-2.810392675143621
7.73079157665941,-1.309484298679347,-2.6369329461851017,-2.812914855601783
7.717696733672616,-1.3764332730936568,-2.6650620947411197,-2.8187344759395683
7.70393240094168,-1.443679908164445,-2.6932494395005153,-2.8279585865331143
7.689495601860036,-1.511126647323199,-2.7215290253658466,-2.840692619099812
7.6743843353868035,-1.5786658855762943,-2.7499359515568447,-2.8570396884904814
7.65859767653104,-1.6461795598705626,-2.7785063484417494,-2.8770997575919197
7.642135880932335,-1.713538656902002,-2.8072773460176688,-2.90096867633394
7.625000494363315,-1.7806026476042978,-2.836287032781008,-2.928737105405825
7.607194467887272,-1.8472188582103821,-2.8655744038350663,-2.9604893354921646
7.588722279305168,-1.9132217889264294,-2.895179297189988,-2.9963020136511607
7.569590061415904,-1.9784323928791783,-2.9251423173264994,-3.0362427898968645
7.549805737487112,-2.0426573300719095,-2.955504745225468,-3.080368899129412
7.529379164186393,-2.105688213578515,-2.986308434216762,-3.128725696301776
7.5083222820506075,-2.1673008680709436,-3.0175956911797797,-3.1813451661303405
7.486649273369898,-2.227254623945608,-3.049409142841083,-3.2382444327517157
7.464376727130442,-2.28529167369742,-3.0817915871686004,-3.2994242994852607
7.441523810393468,-2.341136520663902,-3.114785830163453,-3.364867854241897
7.4181124451868286,-2.394495553668035,-3.148434508705872,-3.434539182056058
7.394167489650148,-2.4450567842264705,-3.1827799005264326,-3.50838223260091
7.369716921807884,-2.492489785611184,-3.217863722852442,-3.586319897221983
7.344792023951772,-2.53644587485762,-3.253726921824662,-3.668253356781095
7.3194275652031955,-2.576558579447483,-3.290409455392473,-3.754061768170856
7.2936619794087205,-2.612444429454703,-3.3279500730741813,-3.8436023634069465
7.267537535114173,-2.64370411297929,-3.3663860967082506,-3.93671104033698
7.241100493984381,-2.6699240272252376,-3.4057532071116206,-4.033203527775194
7.214401253712128,-2.690678249115908,-3.4460852423893726,-4.132877209801751
7.187494471220969,-2.7055309374164915,-3.48741401448739,-4.235513693570115
7.160439161846804,-2.7140391625462548,-3.5297691514230913,-4.340882201801199
7.133298770221341,-2.715756140328831,-3.573177973441103,-4.448743864862408
7.106141208818053,-2.710234821740243,-3.6176654120897274,-4.558856977759597
7.07903886060065,-2.6970317624080615,-3.6632539818673235,-4.670983274596663
7.05206854297657,-2.675711163632367,-3.7099638146132903,-4.784895257522966
7.025311431340246,-2.6458489418363524,-3.7578127671885198,-4.900384599785292
6.998852941921882,-2.607036646790326,-3.8068166131863728,-5.017271624651057
6.972782575453979,-2.5588850122424063,-3.856989329432883,-5.135415845674309
6.947193725331555,-2.5010268876154065,-3.9083434878896264,-5.254727541611353
6.922183456455401,-2.433119268314335,-3.96089076330574,-5.375180334325394
6.897852263772258,-2.3548441171778682,-4.014642566648994,-5.49682474361862
6.874303822600479,-2.2659076529648776,-4.06961081408518,-5.619802712433327
6.85164474607083,-2.166037775761214,-4.125808841209513,-5.744363132045727
6.829984368313218,-2.0549793062951065,-4.18325247252997,-5.8708784511186325
6.8094345752502665,-1.9324867396813026,-4.241961257041156,-5.999862523454472
6.790109707853453,-1.7983142596947639,-4.301959882275701,-6.131989930778449
6.772126565256506,-1.652202838128467,-4.363279781583485,-6.268117093982906
6.755604536875221,-1.493864376624816,-4.425960952523314,-6.409305528563624
6.7406658931089725,-1.3229630778800083,-4.490054007808951,-6.556847548917967
6.727436262330173,-1.1390946408767517,-4.55562248329813,-6.712294471406992
6.716045315921405,-0.941764615528101,-4.6227454280122,-6.877486700999987
6.706627669766124,-0.7303686158454421,-4.6915202950222,-7.054583624473191
6.699323983607669,-0.5041796164925877,-4.762066131266932,-7.24608825229865
6.6942821874427425,-0.2623522383761012,-4.834527013789919,-7.454855707445593
6.6916586650589815,-0.003962568617695117,-4.909075570864375,-7.684063480007118
6.691619039372805,0.271882154561301,-4.985916205664446,-7.937100422174934
6.694337860918417,0.565801425359254,-5.065287209886195,-8.217293246357801
6.69999587517201,0.8776559796646186,-5.1474601423497734,-8.52732264534768
6.708772434968656,1.2056324007610573,-5.232733368803251,-8.868074929458855
6.720828758976267,1.544617640634355,-5.321414118097839,-9.236538857493061
6.73627493538261,1.8835496549812614,-5.413779506672769,-9.622293253336352
6.755110431932423,2.201733394754456,-5.510002439206133,-10.002512884853456
6.777127765879968,2.465387567091363,-5.610027568054668,-10.33712194091184
6.801781641550881,2.6285400132197227,-5.713398787463786,-10.56959493230264
6.828067041683078,2.6448382542801068,-5.819094736786813,-10.642273449267494
6.8545154242258794,2.490943273042305,-5.925517471279488,-10.52710087010994
6.879424856956303,2.1844258158652496,-6.030788479980587,-10.24870554402728
6.901269115114955,1.774735174884246,-6.13327553542086,-9.871382947595805
6.9190164668637975,1.3153562159099763,-6.231989364896818,-9.461859035682432
6.932170029022897,0.8445037808180849,-6.3266079552536425,-9.06467518056657
6.940615066831078,0.3828536722261463,-6.417254707059308,-8.700530819779813
6.9444436035533395,-0.06083611852505072,-6.504260015257106,-8.374572454276784
6.943835242368089,-0.4840722163494431,-6.588005739799874,-8.084151006251153
6.938994520204595,-0.8870760755901197,-6.668847249862385,-7.823490814307624
6.930123759448694,-1.2709518937188462,-6.747082158005462,-7.585995289029231
6.917414240511506,-1.6368500921797047,-6.822942110895754,-7.365245094328587
6.9010457395897085,-1.9856353626403045,-6.89659456183904,-7.15537118578438
6.881189385963306,-2.317794215059577,-6.968148273696883,-6.951157545431061
6.8580114438127096,-2.6334515769692697,-7.0376598491511935,-6.74804056475824
6.8316769280430165,-2.9324348553985646,-7.105140254798776,-6.542078188454875
6.802352579489031,-3.2143567882326085,-7.170561036683325,-6.329917801847136
6.770209011606704,-3.4787035083088016,-7.233860214701797,-6.10877178021543
6.735421976523616,-3.7249209108121506,-7.294947932503951,-5.876400820106238
6.698172767415495,-3.952495246373744,-7.353711940705013,-5.631101623224696
6.658647814951758,-4.161025060913051,-7.41002295693726,-5.371694443258033
6.617037564342628,-4.350282210535108,-7.4637399013698404,-5.097506173921967
6.5735347422372765,-4.520260170501168,-7.51471496310906,-4.808345458624069
6.528332140532265,-4.671208421623317,-7.5627984176953005,-4.50446743149045
6.481620056316031,-4.803652378860873,-7.607843092010205,-4.186526968704816
6.433583532527423,-4.918399093873144,-7.649708361697253,-3.85552060119067
6.384399541588691,-5.0165297497621735,-7.68826356770916,-3.5127184035050427
6.3342342440910695,-5.09938069609583,-7.72339075174421,-3.159588138540137
6.283240437130111,-5.16851537429145,-7.754986633129612,-2.7977146344816317
6.2315552833871966,-5.225689900027694,-7.782963779474428,-2.428717757314961
6.17929838438692,-5.2728152613442925,-7.807250957047577,-2.054172408897874
6.126570231773477,-5.311919038968114,-7.827792681136556,-1.6755337543689928
6.073451041383795,-5.34510925716859,-7.844548018680245,-1.2940704319106995
6.019999948812109,-5.374542437822988,-7.857488722999353,-0.9108079350218289
5.96625452443388,-5.402397163650015,-7.866596802349571,-0.5264838412650423
5.9122305527973795,-5.430853440912353,-7.871861640762222,-0.14151630381909724
5.857922018388256,-5.46207681229941,-7.873276803800413,0.24401249295157507
5.803301250265261,-5.498204326228365,-7.870836678870897,0.6303549862245943
5.748319207002978,-5.541326761270116,-7.864533129008651,1.0180733042540266
5.692905939390276,-5.593457297803455,-7.85435239596611,1.4079798353788264
5.636971366412242,-5.6564700849801755,-7.840272597612322,1.8010232632553698
5.58040666556244,-5.73198134259639,-7.8222623649797685,2.198084972702239
5.523086852136476,-5.821128949366776,-7.800281515252746,2.5996273178715636
5.464875562642808,-5.9241830602799626,-7.774285242074031,3.00510251278512
5.405633732040008,-6.039894660162975,-7.74423421694618,3.411995472632425
5.345234785438378,-6.164482722839806,-7.7101142622198555,3.814366614234059
5.28358995820998,-6.29023734344547,-7.671970596077515,4.2008712112896855
5.220687584775526,-6.4040112744881466,-7.629961883964619,4.5526509374308
5.156647472030644,-6.486551435435349,-7.584435374590311,4.842452132957649
5.091781957676291,-6.514539679941644,-7.536010853260734,5.0376130744312455
5.026636560876875,-6.46714702222041,-7.485634722516422,5.109447940800489
4.961965090654671,-6.335723433516384,-7.434540243108417,5.047027700299221
4.898607856319507,-6.129950102172193,-7.384069966105425,4.865862126163204
4.837308355297785,-5.874029462369461,-7.335411344843793,4.602371607222994
4.778568060674091,-5.595649403716677,-7.289387628771563,4.298053992299666
4.722611566636924,-5.3167523624739195,-7.246407088848566,3.9861995654904367
4.669444043012184,-5.050642247949877,-7.206545093193662,3.6876397706795636
4.6189376205326855,-4.80347917329008,-7.169668695486866,3.412795028750561
4.570902828799785,-4.5769113103830295,-7.135540745199361,3.1654012533636346
4.525133715695954,-4.3702034254172775,-7.103886732665725,2.9455597007196856
4.481431681441782,-4.181565830689837,-7.074431135658528,2.751665503970562
4.439616023134883,-4.0088753737240435,-7.046914480618822,2.581473078452336
4.399527269397643,-3.8500272709111347,-7.021099749834299,2.432631745072361
4.3610269966885316,-3.703086347048419,-6.996773432383575,2.3029296232965515
4.323996133218047,-3.566336876625562,-6.97374413615061,2.1903872264911386
4.288332764451792,-3.4382845677752636,-6.951840263885699,2.0932779247793674
4.2539499187740395,-3.317638134151933,-6.930907484637905,2.0101153908467513
4.22077353743252,-3.2032839410697465,-6.910806330729438,1.939628142098025
4.188740698021823,-3.0942600190377862,-6.891410049308457,1.8807308666279037
4.157798097831445,-2.9897321316947414,-6.872602740642178,1.8324969119372194
4.1279007765144975,-2.888972830544663,-6.854277771522806,1.7941336729933581
4.099011048209051,-2.7913436131840355,-6.836336434792873,1.7649613419858239
4.07109761207721,-2.696279953974511,-6.8186868213730145,1.744394900717806
4.044134812537465,-2.6032788560809266,-6.801242872365837,1.731929000030885
4.018102023976656,-2.511888560060031,-6.783923582365528,1.7271253008862089
