th1 (rad),w1 (rad/s),th2 (rad),w2 (rad/s),a1 (rad/s^2),a2 (rad/s^2)
4.831665217691673,0.17749734384077798,2.1571270189347307,0.3555359203868509,10.083383070487942,0.8544521912176166
4.83344019113008,0.27833117454565737,2.160682378138599,0.36408044229902703,10.100620632966757,0.9018807929819123
4.836223502875537,0.3793373808753249,2.1643231825615894,0.37309925022884616,10.126344508682456,0.9709291915984191
4.840016876684291,0.4806008259621495,2.1680541750638778,0.38280854214483034,10.160429834077286,1.0615170868955583
4.8448228849439126,0.5822051243029224,2.1718822604853263,0.3934237130137859,10.20268966002219,1.1734436523900766
4.850644936186942,0.6842320209031443,2.175816497615464,0.4051581495376867,10.252870748850054,1.3063809959026453
4.857487256395974,0.7867607283916448,2.179868079110841,0.41822195949671315,10.310646553519963,1.459863396649238
4.86535486367989,0.8898671939268444,2.184050298705808,0.4328205934632055,10.375607477292506,1.6332724060113737
4.874253535619158,0.9936232686997695,2.1883785046404403,0.4491533175233192,10.447248529501687,1.8258179065055118
4.884189768306156,1.0980957539947864,2.1928700378156734,0.46741149658837433,10.524954522570853,2.0365152527265287
4.8951707258461035,1.203345299220495,2.197544152781557,0.4877766491156396,10.607983000273876,2.2641586748315854
4.907204178838309,1.3094251292232337,2.2024219192727132,0.5104182358639555,10.695445149973628,2.5072912147543556
4.920298430130541,1.41637958072297,2.2075261016313528,0.5354911480114991,10.786285034221786,2.76417159250905
4.934462225937771,1.5242424310651879,2.212881013111468,0.5631328639365896,10.879257580893407,3.0327385683497066
4.949704650248423,1.633035006874122,2.218512341750834,0.5934602496200866,10.972905895964509,3.310573578225778
4.966035000317164,1.742764065833767,2.2244469442470347,0.6265659854023444,11.065538607464065,3.5948626745005425
4.983462640975501,1.8534194519084077,2.230712604101058,0.6625146121473499,11.155208109218798,3.8823590974575732
5.001996835494586,1.9649715330005957,2.237337750222532,0.7013382031219256,11.239690742292266,4.169348127513483
5.021646550824592,2.0773684404235184,2.244351132253751,0.7430316843970605,11.316470121019007,4.45161620977885
5.0424202352288265,2.1905331416337086,2.2517814490977215,0.787547846494849,11.382724966632216,4.724426682203562
5.064325566645164,2.3043603913000306,2.25965692756267,0.8347921133168846,11.435322939177928,4.9825047504360676
5.087369170558164,2.41871362069181,2.268004848695839,0.8846171608212453,11.470822040103773,5.220034605647276
5.111556306765082,2.5334218410928475,2.2768510203040515,0.936817506877718,11.485481175358489,5.430671740981252
5.13689052517601,2.6482766528464325,2.2862191953728286,0.9911242242875306,11.475281405283843,5.60757355201075
5.163373291704475,2.7630294668992708,2.296130437615704,1.047199959807638,11.435959250515818,5.743451173566419
5.191003586373467,2.877389059404429,2.30660243721378,1.1046344715433023,11.36305316737913,5.830645184420282
5.219777476967511,2.9910195910782202,2.317648781929213,1.1629409233875052,11.251963956992242,5.8612272904727
5.249687672878293,3.103539230648143,2.329278191163088,1.2215531962922321,11.09802944701399,5.827129381875102
5.280723065184775,3.2145195251182828,2.3414937231260105,1.2798244901109832,10.8966133139045,5.720300475646996
5.312868260435958,3.3234856582573276,2.35429196802712,1.3370274948674532,10.643207437498157,5.532891047898032
5.346103117018531,3.429917732632309,2.3676622429757948,1.3923564053464335,10.333546744400703,5.257463187801009
5.380402294344854,3.533253200076316,2.3815858070292593,1.4449310372244435,9.963735144242152,4.887223931534318
5.415734826345617,3.6328905515187375,2.3960351174015035,1.4938032765397866,9.530380919748549,4.416278109544551
5.452063731860805,3.728194360716223,2.4109731501669014,1.537966057635232,9.030739796236487,3.8398960865645604
5.489345675467967,3.818501758678588,2.426352810743254,1.5763650185008777,8.462863846791395,3.154790867044027
5.527530693054753,3.903130397146502,2.4421164609282626,1.607912927171318,7.8257542971320015,2.3593980988508725
5.566561997026218,3.981387940117822,2.458195590199976,1.6315069081598266,7.119516043695587,1.4541513998664972
5.606375876427396,4.052583100554778,2.474510659281574,1.6460484221584915,6.34551112066356,0.4417439831044709
5.646901707432944,4.116038211761413,2.490971143503159,1.6504658619895363,5.506507270430885,-0.6726344032304685
5.6880620895505585,4.1711032844657225,2.5074758021230545,1.6437395179572316,4.606816046921682,-1.8810987781275896
5.7297731223952155,4.217171444934939,2.523913197302627,1.6249285301759557,3.6524124638310402,-3.1729251767722912
5.771944836844565,4.2536955695732495,2.5401624826043867,1.5931992784082327,2.6510251993502787,-4.534481993840653
5.814481792540297,4.280205821566752,2.556094475388469,1.5478544584698262,1.6121831143541283,-5.949259721274868
5.857283850755965,4.296327652710294,2.571573019973167,1.4883618612570775,0.5472009238802034,-7.398024307939347
5.900247127283068,4.3017996619490955,2.5864566385857377,1.414381618177684,-0.5309148675981945,-8.859118833481812
5.943265123902559,4.296490513273113,2.6006004547675143,1.325790429842866,-1.6076581667937777,-10.308933812962556
5.98623002903529,4.2804139316051755,2.613858359065943,1.2227010917132404,-2.6673282828927305,-11.722557014923266
6.029034168351341,4.253740648776248,2.6260853699830755,1.1054755215640077,-3.6934546022468826,-13.074598557877716
6.071571574839104,4.21680610275378,2.6371401251987154,0.9747295359852306,-4.6693359188398915,-14.340166701263803
6.113739635866642,4.17011274356538,2.646887420558568,0.8313278689725926,-5.578674123527553,-15.495946094841129
6.155440763302296,4.114326002330105,2.6552006992482937,0.6763684080241813,-6.406265277248835,-16.521306809103038
6.196584023325597,4.050263349557617,2.6619643833285354,0.5111553399331509,-7.1386959661688545,-17.399353970651788
6.237086656821173,3.978876389895928,2.667075936727867,0.337161800226633,-7.764982739408435,-18.11781929518397
6.276875420720132,3.9012265625018436,2.670447554730133,0.1559836072747933,-8.27709051447398,-18.669701205588854
6.3158876863451505,3.818455657357104,2.672007390802881,-0.030713404781095244,-8.670273933838265,-19.053581018317505
6.354072242918722,3.731752918018721,2.67170025675507,-0.2212492149642703,-8.94320348552599,-19.273576919643563
6.3913897720989095,3.6423208831634613,2.669487764605427,-0.41398498416070595,-9.097863117673276,-19.338939745023684
6.427812980930544,3.5513422519867284,2.66534791476382,-0.6073743816109428,-9.139233573967465,-19.263337224499182
6.463326403450411,3.4599499162470537,2.6592741709477106,-0.8000077538559347,-9.074800523293115,-19.063908338907886
6.497925902612882,3.3692019110141227,2.6512740934091514,-0.9906468372450136,-8.913944210288712,-18.760190545619643
6.531617921723023,3.2800624689112357,2.6413676250367013,-1.17824874270121,-8.66727513291232,-18.373027072620147
6.564418546412135,3.1933897175821127,2.629585137609689,-1.3619790134274115,-8.345977874144777,-17.92355028482722
6.596352443587956,3.109929938840665,2.6159653474754148,-1.5412145162756836,-7.961214561297343,-17.432314456015494
6.627451742976363,3.0303177932276917,2.600553202312658,-1.7155376608358386,-7.523623737937748,-16.918622909978
6.65775492090864,2.9550815558483143,2.5833978257042993,-1.8847238899356187,-7.042933276176824,-16.40006615270807
6.687305736467123,2.884652223086546,2.564550586804943,-2.0487245514626995,-6.5276903409611995,-15.892263701792197
6.7161522586979885,2.819375319676934,2.544063341290316,-2.2076471884806215,-5.9850992880421785,-15.40878528842541
6.744346011894758,2.7595243267965124,2.52198686940551,-2.3617350413648754,-5.420950515541644,-14.961217520793742
6.771941255162723,2.705314821641096,2.4983695189918613,-2.511347216572813,-4.839619524638176,-14.559339089474628
6.798994403379134,2.6569186263947144,2.4732560468261333,-2.656940607467559,-4.244115010856354,-14.21136950919258
6.825563589643081,2.614477476286151,2.446686640751458,-2.799054302559485,-3.6361567016002234,-13.924261351312712
6.851708364405942,2.578115909270149,2.418696097725863,-2.9382969160726122,-3.0162669191650067,-13.704012227382924
6.877489523498643,2.547953240078499,2.3893131285651372,-3.0753370383464413,-2.383863735439242,-13.555979100855739
6.902969055899428,2.5241146027241066,2.3585597581816726,-3.210896829354999,-1.737347637103981,-13.485182883888756
6.928210201926669,2.5067411263530666,2.326450789888123,-3.3457486581938864,-1.0741776868547148,-13.496595063963111
6.9532776131902,2.4959993494845194,2.292993303306184,-3.4807146088335177,-0.39093740307717045,-13.595399774490394
6.978237606685045,2.4920899754537476,2.2581861572178488,-3.6166686065784215,0.31660452592353866,-13.787223662436789
7.003158506439583,2.495256020712983,2.2220194711520644,-3.7545408432027894,1.053427128046192,-14.078321144571264
7.028111066646712,2.5057902919934447,2.1844740627200365,-3.895324054648502,1.8251625723860407,-14.475692484137264
7.053168969566647,2.5240419177173052,2.1455208221735513,-4.040080979489875,2.637938105327289,-14.987093587259764
7.07840938874382,2.550421298770578,2.1051200123786526,-4.189951915362473,3.4980941115006234,-15.620864419547798
7.103913601731525,2.5854022398855845,2.0632204932250278,-4.34616055955795,4.411677844872826,-16.385448977242227
7.129767624130381,2.629519018334313,2.019758887629448,-4.510015049330373,5.383546600776571,-17.288390062601252
7.156062814313724,2.6833544843420785,1.9746587371361444,-4.682898949956385,6.415807444104927,-18.334435501164098
7.182896359157145,2.7475125587831277,1.9278297476365804,-4.866243304968027,7.505151995341781,-19.522158977724033
7.210371484744977,2.8225640787365456,1.8791673145869001,-5.061464894745267,8.63839077242741,-20.83814415944017
7.238597125532342,2.9089479864608196,1.8285526656394475,-5.269846336339669,9.785144393375669,-22.247290851207143
7.267686605396951,3.0067994303945764,1.7758542022760508,-5.492319244851741,10.886274982557657,-23.677262078866825
7.297754599700896,3.115662180220153,1.7209310098275334,-5.7290918656404095,11.836538350897776,-24.994903579784637
7.328911221503098,3.2340275637291307,1.6636400911711293,-5.979040901438256,12.460989769241204,-25.973843682739858
7.3612514971403895,3.3586374614215426,1.6038496821567467,-6.238779338265655,12.48895169170954,-26.258280489896457
7.394837871754605,3.483526978338638,1.54146188877409,-6.501362143164619,11.54042743902309,-25.34316151443283
7.429673141537991,3.598931252728869,1.476448267342444,-6.7547937583089475,9.16023913909347,-22.61912594113668
7.46566245406528,3.6905336441198036,1.4089003297593545,-6.9809850177203145,4.954628154352487,-17.55762336693098
7.502567790506478,3.7400799256633284,1.3390904795821514,-7.156561251389625,-1.1411390477272207,-10.075635814476911
7.539968589763111,3.7286685351860562,1.2675248670682553,-7.257317609534394,-8.573308100451294,-0.9292965832798789
7.577255275114972,3.642935454181543,1.1949516909729114,-7.266610575367193,-16.156944237178863,8.274946904931307
7.613684629656787,3.4813660118097545,1.1222855852192395,-7.18386110631788,-22.552400924429953,15.739925131901202
7.648498289774885,3.255842002565455,1.0504469741560607,-7.026461854998868,-26.931054205526635,20.387001473942156
7.681056709800539,2.9865314605101885,0.980182355606072,-6.822591840259447,-29.24452407403243,22.208604098802503
7.710922024405641,2.694086219769864,0.9119564372034775,-6.600505799271422,-29.970187950716983,21.902216439169816
7.73786288660334,2.394384340262694,0.8459513792107634,-6.381483634879723,-29.710631518864272,20.315923493014395
7.761806730005967,2.0972780250740515,0.7821365428619661,-6.178324399949579,-28.954689965519467,18.12598844481404
7.782779510256708,1.8077311254188568,0.7203532988624703,-5.997064515501439,-28.02090742432864,15.767300333731438
7.800856821510896,1.5275220511755705,0.660382653707456,-5.839391512164124,-27.088451416987436,13.481762999937793
7.816132042022652,1.2566375370056961,0.6019887385858147,-5.7045738821647465,-26.244961968713643,11.387169620467294
7.828698417392709,0.9941879173185597,0.5449429997641673,-5.590702185960073,-25.524630098756532,9.530772027746528
7.838640296565894,0.7389416163309943,0.48903597790456654,-5.495394465682608,-24.932767364889468,7.923312968332402
7.846029712729204,0.4896139426820996,0.4340820332477405,-5.416161335999284,-24.460113441670984,6.558536789027332
7.850925852156025,0.24501280826538976,0.3799204198877476,-5.350575968109011,-24.090669518348918,5.423652880895701
7.853375980238679,0.004106113081900592,0.3264146602066575,-5.296339439300054,-23.805790849892386,4.504615136197071
7.853417041369498,-0.23395179541702327,0.273451265813657,-5.251293287938083,-23.586226804586257,3.7885665010611027
7.851077523415328,-0.46981406346288584,0.22093833293427614,-5.2134076229274715,-23.413080106186783,3.264779950858442
7.846379382780699,-0.7039448645247537,0.16880425670500143,-5.180759823418887,-23.268224462550208,2.924821774470164
7.8393399341354515,-0.9366271091502558,0.11699665847081256,-5.151511605674186,-23.134473318526034,2.762323356552747
7.829973663043949,-1.167971842335516,0.0654815424140707,-5.1238883721086586,-22.995655689545547,2.7725633461568977
7.818293944620594,-1.3979283992309717,0.014242658692984113,-5.09616273864709,-22.836679748711003,2.9519646738415
7.804314660628284,-1.6262951967180816,-0.036718968693486786,-5.0666430919086745,-22.643623134617055,3.2975609473292855
7.788051708661103,-1.8527314280642522,-0.08738539961257352,-5.033667482435382,-22.403865307346997,3.8064624372904894
7.769524394380461,-2.076770081137722,-0.13772207443692736,-4.995602858062477,-22.10626332079372,4.475341133224191
7.748756693569084,-2.297832714345659,-0.1876781030175521,-4.950849446730235,-21.741363696870145,5.299950559633858
7.725778366425628,-2.5152463513143606,-0.23718659748485446,-4.897849941133896,-21.301637471336797,6.274695459048975
7.700625902912484,-2.7282627260277286,-0.2861650968961934,-4.835102986543406,-20.781721908868022,7.392266926171024
7.673343275652207,-2.9360799451164086,-0.33451612676162745,-4.7611803172816956,-20.17865044335336,8.64335888180727
7.643982476201042,-3.137866449549942,-0.3821279299344444,-4.674746728463623,-19.492051943832493,10.016481238471147
7.612603811705543,-3.332786968988267,-0.42887539721908063,-4.574581916078911,-18.72430135830354,11.497883452807166
7.57927594201566,-3.520029982571302,-0.47462121637986976,-4.459603081550839,-17.88060602377186,13.071599382421539
7.544075642189947,-3.698836042809021,-0.5192172471953782,-4.328887087726624,-16.969015244736035,14.719620646217761
7.507087281761857,-3.868526195256381,-0.5625061180726445,-4.181690881264447,-16.00034486190032,16.422201287293422
7.468402019809293,-4.028529643875384,-0.6043230268852889,-4.0174688683915125,-14.988013176869845,18.158291695959836
7.42811672337054,-4.178409775644083,-0.6444977155692041,-3.8358859514319144,-13.947789542613446,19.906094617226298
7.386332625614099,-4.317887671070217,-0.6828565750835233,-3.6368250052596514,-12.897462051747791,21.643730687235905
7.343153748903396,-4.446862291587695,-0.7192248251361197,-3.4203876983872923,-11.856436033147961,23.349995317908878
7.298685125987519,-4.565426651919174,-0.7534287021199927,-3.1868877452082036,-10.845280517920479,25.005182964301206
7.2530308594683275,-4.673879457098379,-0.7852975795720747,-2.9368359155651915,-9.885245404845861,26.591949191111343
7.206292064897344,-4.772731911146837,-0.8146659387277266,-2.670916423654078,-8.997777505068544,28.096176185474096
7.158564745785876,-4.8627096861975225,-0.8413751029642674,-2.389954661799337,-8.20406848285853,29.507804481628035
7.109937648923901,-4.944750371026108,-0.8652746495822607,-2.094876616983057,-7.524671202805673,30.82159389878338
7.06049014521364,-5.0199970830541645,-0.8862234157520913,-1.786660677995223,-6.979222294584899,32.03778112975229
7.0102901743830985,-5.0897893060000134,-0.9040900225320435,-1.4662828666977001,-6.586307070995172,33.16261053831832
6.959392281323098,-5.155652376709965,-0.9187528511990205,-1.1346567613145169,-6.363497723114842,34.208727933630804
6.907835757555999,-5.219287353941114,-0.9300994188121656,-0.7925694819782088,-6.327586624812068,35.1954422844297
6.8556428840165875,-5.2825632201892345,-0.9380251136319477,-0.44061505913391175,-6.495023140201371,36.14887347156079
6.802817251814695,-5.347513451591248,-0.9424312642232868,-0.07912632441830386,-6.882543058905315,37.102008599537
6.749342117298783,-5.416338882180301,-0.9432225274674698,0.29189376157706615,-7.50795040432184,38.0946742916746
6.6951787284769795,-5.491418386223519,-0.9403035898516992,0.6728405044938122,-8.390961455081076,39.17337920392875
6.640264544614745,-5.57532800077433,-0.933575184806761,1.0645742965330998,-9.553927552640479,40.39085539127897
6.584511264607001,-5.670867276300735,-0.92292944184143,1.4684828504458896,-11.022069252057662,41.80486249623201
6.527802591843994,-5.7810879688213115,-0.9082446133369712,1.8865314754082096,-12.822484147893164,43.47528300953875
6.469991712155781,-5.909312810300243,-0.889379298582889,2.321284305503597,-14.98044641563988,45.45747037303071
6.410898584052778,-6.059117274456642,-0.866166455527853,2.775859009233904,-17.510041511458983,47.787720601381835
6.350307411308211,-6.234217689571231,-0.8384078654355139,3.2537362152477223,-20.39335258047523,50.45275936055762
6.287965234412499,-6.438151215375983,-0.8058705032830367,3.7582638088532985,-23.537369295177115,53.328072626740784
6.22358372225874,-6.673524908327755,-0.7682878651945036,4.291544535120706,-26.690236278838817,56.05939651595468
6.156848473175462,-6.9404272711161425,-0.7253724198432966,4.852138500280253,-29.29279989467626,57.85399887471558
6.0874442004643,-7.233355270062905,-0.676851034840494,5.430678489027409,-30.26077033970556,57.17621023708843
6.015110647763671,-7.53596297345996,-0.62254424995022,6.002440591398294,-27.80906540434802,51.50628142715584
5.939751018029072,-7.814053627503441,-0.562519844036237,6.517503405669852,-19.75402819760518,37.77885247447116
5.861610481754037,-8.011593909479492,-0.49734480997953845,6.8952919304145635,-5.056643266409194,14.57634574823022
5.781494542659242,-8.062160342143583,-0.4283918906753928,7.041055387896866,13.670332099016889,-14.3226679020625
5.700872939237806,-7.925457021153415,-0.35798133679642413,6.897828708876241,30.146830236048324,-39.9306664823753
5.621618369026272,-7.623988718792932,-0.2890030497076617,6.498522044052488,39.30998402328992,-54.97808148218232
5.545378481838343,-7.230888878560032,-0.22401782926713684,5.948741229230665,41.12604474032499,-59.33657431061114
5.473069593052743,-6.819628431156782,-0.1645304169748302,5.3553754861245535,38.56218308676905,-57.178206268024496
5.404873308741175,-6.434006600289091,-0.11097666211358467,4.783593423444309,34.32968897289278,-52.36213064126765
5.340533242738284,-6.090709710560164,-0.06314072787914159,4.259972117031632,29.911990317937786,-47.03170423325067
5.279626145632682,-5.791589807380786,-0.02054100670882527,3.789655074699125,25.90720553460779,-42.077838528156505
5.221710247558875,-5.532517752034709,0.017355544038165978,3.3688766894175597,22.477446582636976,-37.76624828410349
5.166385070038528,-5.307743286208339,0.051044310932341574,2.9912142065765246,19.609618594118544,-34.105404819780965
5.113307637176445,-5.111647100267153,0.08095645299810682,2.650160158378715,17.23407329371992,-31.015973946360287
5.062191166173773,-4.939306367329954,0.10745805458189397,2.3400004189151122,15.271996813911048,-28.39984870791956
5.012798102500473,-4.786586399190844,0.1308580587710451,2.0560019318359166,13.651937195366294,-26.16525216040796
4.964932238508565,-4.6500670272371805,0.15141807808940425,1.794349410231837,12.314012936256914,-24.234024051728397
4.918431568236193,-4.5269268978746116,0.16936157219172263,1.552009169714553,11.209611107473624,-22.542190006200368
4.873162299257447,-4.414830786799875,0.18488166388886815,1.3265872696525494,10.299703328483524,-21.038318386195776
4.8290139913894485,-4.31183375351504,0.19814753658539364,1.1162040857905917,9.55296478488444,-19.681408693323593
