th1 (rad),w1 (rad/s),th2 (rad),w2 (rad/s)
4.41180435014437,2.2920181972325233,1.6810429998488174,2.863794059967366
4.434724532116695,2.364802325421546,1.7096809404484912,2.8540970948532216
4.45837255537091,2.439966407875502,1.7382219113970234,2.8484043835070434
4.482772219449665,2.5175519878825514,1.7667059552320938,2.8469256750088703
4.507947739328491,2.5975889672485075,1.7951752119821824,2.849863285911788
4.5339236290009755,2.680095773929734,1.8236738448413004,2.8574121341391603
4.560724586740273,2.765079299239915,1.852247966182692,2.8697594648348512
4.588375379732672,2.8525346113910595,1.8809455608310406,2.8870842773855507
4.616900725846583,2.9424444547154183,1.9098164036048961,2.909556465702535
4.646325170393737,3.034778546687912,1.9389119682619216,2.9373356871614282
4.676672955860616,3.129492687985338,1.968285325133536,2.9705699795835745
4.70796788274047,3.22652770437788,1.9979910249293718,3.0093941504594883
4.740233159784249,3.325808243287778,2.028084966433967,3.0539279683415246
4.773491242217126,3.4272414523411876,2.058624246117382,3.1042741929571136
4.807763656740538,3.530715572083422,2.0896669880469534,3.160516488001042
4.843070812461372,3.6360984800509244,2.121272152926964,3.222717268525976
4.879431797261881,3.743236228343986,2.1534993256122235,3.2909155430104318
4.91686415954532,3.8519516213943628,2.186408481042328,3.3651248180580384
4.955383675759264,3.962042884373669,2.2200597292229083,3.44533114065866
4.995004104603001,4.073282475187178,2.254513040629495,3.531491358293802
5.035736929354872,4.185416093753981,2.289827954212433,3.623531680081403
5.077591090292412,4.298161940793762,2.326063271013247,3.7213466217693334
5.120572709700349,4.411210274161418,2.3632767372309402,3.824798412855964
5.164684812441964,4.5242233035087756,2.4015247213595,3.933716934677151
5.209927045477052,4.63683545344759,2.4408618907062714,4.047900243352743
5.256295400011528,4.7486540113486,2.481340893139799,4.167115710679684
5.303781940125013,4.859260158555616,2.523012050246596,4.291101789363321
5.352374541710569,4.968210363475436,2.565923068140229,4.419570376748408
5.402056645345324,5.075038092327657,2.6101187719077132,4.552209714223223
5.452807026268601,5.179255769152829,2.6556408690499453,4.688687718930116
5.504599583960129,5.280356892059796,2.7025277462392463,4.828655601935004
5.557403152880727,5.377818188918022,2.7508143022585965,4.971751584550483
5.611181334769907,5.471101674208952,2.8005318181041012,5.117604484317723
5.665892351511997,5.559656451124562,2.8517078629472783,5.265836906683969
5.721488916023242,5.642920090960901,2.904366232014118,5.416067750267257
5.777918116932851,5.720319417279496,2.9585269095167908,5.567913715507233
5.835121311105645,5.791270527297278,3.014206046671863,5.72098950134823
5.893034016378618,5.855177899917954,3.0714159416853453,5.874906385527516
5.951585795377797,5.911432471545469,3.1301650055406203,6.029268914590984
6.010700120093252,5.9594086106341155,3.19045769468653,6.183669484064618
6.070294206199593,5.99845999366775,3.2522943895271763,6.3376806721682115
6.13027880613627,6.027914483173023,3.3156711962488585,6.490845307793563
6.190557950968,6.047068236756852,3.380579649326794,6.642664411570099
6.251028633335569,6.055179438603862,3.447006293442495,6.792583354167255
6.311580427721608,6.05146224292748,3.5149321269841676,6.9399768338179895
6.372095050150882,6.03508174999757,3.5843318953223475,7.0841335873147475
6.432445867650858,6.0051510900298295,3.655173231195495,7.224242110634526
6.492497378551157,5.960731948199853,3.7274156523018402,7.359379060759849
6.552104698033156,5.900840090393542,3.8010094429094385,7.488502406086373
6.611113098937091,5.824457590934683,3.875894466970302,7.610451733308248
6.669357674846438,5.730553448196437,3.9519989843033847,7.723958321616819
6.726663209328402,5.618114014352643,4.029238567519553,7.827667552789225
6.782844349471929,5.486184071328993,4.107515243047445,7.920175815297258
6.8377061901852185,5.3339183861947514,4.186717001200417,8.000083166713939
6.891045374047166,5.1606421597823084,4.266717832867557,8.066061571941479
6.942651795644989,4.9659170201404015,4.347378448586972,8.116936560671503
6.992310965846393,4.749607312954838,4.428547814193687,8.151777815301918
7.039807038975941,4.511939745668291,4.510065592346706,8.169991850247154
7.0849264364326245,4.2535483905098594,4.591765510849178,8.171408065191411
7.127461920337723,3.97549708741661,4.673479591501092,8.156348601010965
7.167216891211889,3.6792727164670227,4.755043077511202,8.125673062433581
7.204009618376559,3.366745651398542,4.8362998081355375,8.080791495944403
7.237677074890544,3.040097606317943,4.917107723094982,8.0236428254845
7.268078050953724,2.7017213431283067,4.997344151349827,7.956640632552137
7.295095264385007,2.3541004266549606,5.076910557675348,7.882592812599624
7.318636268651557,1.9996795744019105,5.155736485801345,7.804605301883054
7.338633064395576,1.64073664372586,5.233782538820176,7.725982053456283
7.355040430832834,1.2792658910615806,5.3110423593547385,7.650133504757976
7.36783308974345,0.9168792327034576,5.387543694402318,7.580504172239495
7.377001882070485,0.5547285249361968,5.463348736124713,7.520527350979774
7.382549167319847,0.19344810631866827,5.5385540096345105,7.473611958730704
7.384483648383034,-0.16688639848648262,5.613290129221817,7.443164037442221
7.382814784398169,-0.5267893834308239,5.68772176959624,7.432643768264669
7.3775468905638615,-0.8873944347143097,5.762048207278887,7.4456582130339335
7.368672946216718,-1.2504895506461267,5.836504789409226,7.486090161250024
7.356168050710258,-1.618565910436517,5.911365691021726,7.5582637822386385
7.339982391605893,-1.994885277651048,5.986948328844113,7.6671468095059385
7.3200335388293825,-2.3835649798506027,6.0636197969391725,7.81858352651997
7.296197889030877,-2.789664463300869,6.141805632204372,8.019535595596878
7.268301244397868,-3.219221532110645,6.222000988160341,8.278261850205064
7.236109029076762,-3.679101349017099,6.304783606662391,8.604254387731654
7.1993180155865915,-4.1763241788956895,6.3908261505397075,9.007478796155922
7.157554773797634,-4.716100715805769,6.480900938501267,9.495860981046798
7.110393766639577,-5.296931371775997,6.575859548311735,10.068742661846034
7.057424452921817,-5.899855198425221,6.676546974930195,10.70222400520879
6.998425900937565,-6.46923901779377,6.7835692149822835,11.322636814782593
6.933733510759627,-6.893087216476592,6.8967955831301095,11.778952286099946
6.864802638594861,-7.0239909654264405,7.014585105991109,11.870883036848811
6.794562728940596,-6.789097675171127,7.133293936359597,11.499542982649022
6.726671752188885,-6.287119036939113,7.248289366186087,10.799296849814988
6.663800561819494,-5.696196683419373,7.356282334684237,10.009431380635514
6.606838594985301,-5.133147185406124,7.4563766484905925,9.282806103901944
6.55550712313124,-4.637539527577665,7.5492047095296115,8.667310294014893
6.509131727855463,-4.210955987473953,7.635877812469761,8.160847638824277
6.467022167980724,-3.843338347767473,7.717486288858003,7.747115911605248
6.428588784503049,-3.5231996378720423,7.794957447974056,7.409023043093705
6.393356788124328,-3.2405547171695623,7.869047678404994,7.13227021621463
6.360951240952633,-2.987374996759376,7.94037038056714,6.905701465221427
6.331077490985039,-2.7573508141202003,8.009427395219355,6.7208095805487
6.303503982843837,-2.5455343841677247,8.076635491024842,6.571138411329891
6.27804863900216,-2.348024199594432,8.142346875138141,6.45177310841766
6.254568397006215,-2.1617222550758894,8.206864606222318,6.358943282314814
6.232951174455456,-1.9841590299168153,8.270454039045466,6.28972025247169
6.213109584156288,-1.8133739277627061,8.333351241570183,6.24178288928518
6.194975844878661,-1.6478399432671518,8.395769070463034,6.213229780376418
6.1784974454459896,-1.4864240163795461,8.457901368266798,6.2024204285771285
6.163633205282194,-1.3283767628829632,8.51992557255257,6.207832893715224
6.1503494376533645,-1.1733463681389884,8.582003901489722,6.22792965962211
6.138615973971975,-1.0214111082545863,8.644283198085944,6.2610280678900025
6.128401862889429,-0.873123024735379,8.706893478764844,6.30517703295636
6.119670632642075,-0.7295516817537934,8.769945249094407,6.358048344139667
6.112375115824537,-0.5923120535010645,8.833525732535804,6.4168584654359
6.106451995289526,-0.4635556238048572,8.897694317190163,6.478344032583432
6.101816439051477,-0.34590112864501454,8.962477757515998,6.538818311170012
6.098357427765027,-0.24228454381179831,9.027865940627699,6.594332370586498
6.095934582326909,-0.15572041365523803,9.093809264333563,6.640949324820661
6.094377378190357,-0.08898945696436719,9.16021875758177,6.675111565869776
6.093487483620713,-0.04429614563514728,9.226969873240469,6.694045298947542
6.093044522164361,-0.022963726671954808,9.293910326229945,6.696117834955501
6.092814884897642,-0.02523931490746559,9.3608715045795,6.681058103460457
6.092562491748567,-0.05026022626089996,9.427682085614103,6.6499792398115005
6.092059889485959,-0.09618984214036885,9.494181878012219,6.605196498447476
6.091097991064555,-0.16048475870687523,9.560233842996693,6.54989125194392
6.089493143477487,-0.2402248684136002,9.625732755516132,6.4877074562010595
6.08709089479335,-0.3324345498160336,9.690609830078143,6.422368882630991
6.0837665492951905,-0.4343421877570064,9.754833518904453,6.357379909337146
6.079423127417621,-0.5435538415517066,9.818407317997824,6.295836528555143
6.073987589002104,-0.658142346928269,9.881365683283375,6.240343166119096
6.067406165532821,-0.7766688167835257,9.943769114944566,6.193012667004705
6.059639477364986,-0.89815902982894,10.005699241614613,6.155521259954599
6.050657887066697,-1.0220556874030817,10.067254454214158,6.129193244515803
6.040437330192666,-1.1481626954209723,10.128546386659316,6.115096835652573
6.028955703238457,-1.2765922355689416,10.189697355015841,6.114139719792924
6.016189780882767,-1.4077208771335634,10.25083875221377,6.1271587547746265
6.0021125721114315,-1.5421578135026226,10.312110339761517,6.155002431133355
5.9866909939764055,-1.6807264046227857,10.373660364072851,6.198607390439626
5.969883729930178,-1.8244592736778928,10.435646437977248,6.259071874599877
5.951639137193399,-1.9746069144710876,10.498237156723246,6.337729849428902
5.931893068048688,-2.132659813507605,10.561614455217535,6.436229971067763
5.910566469913612,-2.3003841786223225,10.625976754928212,6.556623617281395
5.887562628127389,-2.479871100849091,10.691542991101025,6.701465668527787
5.862763917118898,-2.6735976638968353,10.758557647786303,6.873929855225915
5.83602794047993,-2.884494733926679,10.827296946338562,7.077935485788429
5.807182993140663,-3.11600685544948,10.898076301196445,7.31827015629534
5.776022924586169,-3.3721082235372877,10.971259002759398,7.600664598504972
5.742301842350796,-3.657190875225371,11.047265648744448,7.931711558148383
5.705729933598542,-3.975637465133572,11.126582764325931,8.318379387655014
5.665973558947207,-4.3306746821491675,11.209766558202482,8.766573438953374
5.622666812125715,-4.7216897415879755,11.297432292592015,9.277623257419878
5.575449914709835,-5.138564113547675,11.390208525166214,9.840687642118503
5.524064273574358,-5.551314127888502,11.4886154015874,10.418656930367021
5.468551132295473,-5.896270277649007,11.592801970891069,10.929118013847907
5.409588429518983,-6.072653209066686,11.702093151029548,11.239336715291188
5.348861897428317,-5.981728262508589,11.81448651818246,11.219520422684715
5.289044614803231,-5.609949656402144,11.926681722409306,10.855930191006188
5.2329451182392095,-5.0557901214617145,12.035241024319367,10.285489389708667
5.182387217024592,-4.4443871909142425,12.138095918216454,9.677459703467619
5.13794334511545,-3.8517771485817174,12.23487051525113,9.131537764443145
5.099425573629633,-3.3042710124346217,12.32618589289556,8.6795762585079
5.066382863505287,-2.803132304129101,12.412981655480639,8.32037126764437
5.038351540463996,-2.341083566203993,12.496185368157082,8.042162470995335
5.014940704801956,-1.9093351161533867,12.576606992867035,7.831875170496331
4.995847353640422,-1.499931824148946,12.654925744571997,7.677985095074026
4.980848035398933,-1.106307342941315,12.731705595522739,7.571012155410426
4.96978496196952,-0.7232527031788767,12.807415717076843,7.5032767302758945
4.962552434937731,-0.3467386866533186,12.882448484379601,7.468496094871396
4.959085048071198,0.02626368438111598,12.957133445328315,7.461402431964568
4.959347684915008,0.3979258986376763,13.03174746964796,7.477427152022032
4.963326943901385,0.7696651090666258,13.106521741168182,7.512453424726865
4.971023594992051,1.1422158910651214,13.181646275415451,7.562628372699709
4.982445753902702,1.5156814444436035,13.257272559142448,7.624226273716849
4.997602568347138,1.8895750217104914,13.333514821879616,7.693556605649791
5.016498318564243,2.2628614319556686,13.410450387936114,7.766913145772558
5.0391269328838,2.6340070589467173,13.48811951939384,7.8405616676194425
5.065467003473267,3.0010448744959186,13.566525136070034,7.910763772490743
5.095477452218226,3.3616582863425046,13.645632773794942,7.973833066833698
5.129094035081652,3.7132843331840295,13.725371104463278,8.026217523019403
5.166226878413492,4.05323297487554,13.805633279693472,8.064598974380022
5.206759208162247,4.378815540903421,13.886279269437273,8.08599805815273
5.250547363571282,4.687472502426734,13.9671392500188,8.087871389314857
5.297422088595549,4.976889334897973,14.04801796391195,8.068188049109331
5.347190981944529,5.245089816012431,14.128699844403043,8.025474941033542
5.399641880104653,5.490498691410125,14.208954593813377,7.958824975436061
5.454546867018754,5.711969755820301,14.288542843567738,7.867867598965287
5.511666564576958,5.908780153027037,14.367221519557392,7.752706741226432
5.570754366107228,6.0805960667597585,14.444748586969656,7.613835659711963
5.631560326774825,6.227418099144928,14.520886943566776,7.452040621381714
5.693834507766274,6.349516055230331,14.595407349780594,7.268305608552448
5.757329668318578,6.447362577707541,14.668090405866119,7.06372856210503
5.821803294095653,6.521573481467965,14.738727691487169,6.839456720527244
5.887019028910332,6.572860281522589,14.807122258692441,6.596645131021559
5.9527476317255585,6.601997840690527,14.873088710002657,6.336439042901449
6.018767610132464,6.609807700083568,14.936453100431672,6.059978063416898
6.084865687133299,6.5971557301391375,14.99705288106584,5.76841784617685
6.15083724443469,6.564961329707433,15.054737059527609,5.46296370200629
6.2164868577317645,6.514214482935104,15.109366696547673,5.144909793111746
6.2816290025611154,6.445996498128912,15.16081579447879,4.815677403460714
6.346088967542404,6.361500146369666,15.208972568513397,4.4768461128710175
6.409703969006101,6.2620451640131245,15.253741029642107,4.130172520136092
6.472324420646232,6.149085677187543,15.295042754843468,3.777592457454264
6.533815277418108,6.024207040288567,15.332818679418011,3.421204383314649
6.594057347820994,5.889110813125034,15.367030723251158,3.0632337323418914
6.652948455952244,5.745588033233955,15.397663060574578,2.705980241186351
6.710404336284584,5.595482406683084,15.42472286298644,2.3517523743187043
6.766359160351414,5.440646333119469,15.448240386729628,2.0027946167736133
6.820765623682609,5.282893588372159,15.468268332897365,1.6612142929731053
6.873594559566331,5.123952853930138,15.484880475827095,1.328914541291058
6.924834088105632,4.965426050969034,15.498169621240006,1.0075391292002962
6.974488348615322,4.808754671191493,15.50824501253201,0.6984331244618796
7.022575895327237,4.6551961652009375,15.515229343776628,0.4026213717012344
7.069127856979247,4.50581117647726,15.51925555749364,0.12080463926816598
7.114185968744019,4.361461218773643,15.520463603886322,-0.1466284666307165
7.157800580931756,4.222815457984395,15.518997319220015,-0.39957695382920827
7.2000287355116,4.090364666756701,15.515001549681722,-0.6381940088740272
7.2409323821791665,3.9644401798176396,15.508619609592982,-0.8628484662227812
7.2805767839773425,3.8452357357632803,15.499991124930753,-1.074084584122208
7.319029141334975,3.7328303582749354,15.489250279089532,-1.2725828737207767
7.356357444917725,3.6272108110207193,15.476524450352324,-1.459123966749412
7.392629553027932,3.52829257344978,15.46193321068483,-1.6345567656024587
7.42791247876243,3.435938669703964,15.445587643028805,-1.799771478173234
7.46227186545947,3.34997600474419,15.427589928247073,-1.955677636331154
7.495771625506912,3.2702091059105904,15.408033151883762,-2.103186836800796
7.528473716566017,3.196431334456449,15.387001283515755,-2.243199710693183
7.560438029910582,3.1284337284924697,15.364569286408823,-2.376596496565812
7.591722367195507,3.066011678042136,15.340803321443165,-2.5042305319393305
7.622382483975928,3.0089696262409262,15.315761016123771,-2.626923961292621
7.652472180238337,2.957123947598778,15.289491776510845,-2.745464959735166
7.682043419714325,2.9103040809003278,15.262037126913492,-2.860605769655543
7.711146460523328,2.868351893346424,15.233431069216937,-2.973060824695621
7.739829979456792,2.8311191231028148,15.203700460969982,-3.0835041756642263
7.76814117068782,2.7984625858647307,15.17286541921334,-3.192565322289236
7.796125796546468,2.7702366322592975,15.140939765990447,-3.3008223806676145
7.823828162869061,2.7462821030816165,15.10793154218377,-3.408791270820528
7.851290983899878,2.7264107514697766,15.073843629475565,-3.516909294474575
7.878555091414576,2.7103838054295224,15.03867453653082,-3.6255111168892755
7.9056589294688715,2.6978830872125985,15.002419425361927,-3.7347948448984183
7.932637760340998,2.688473012988471,14.965071476912943,-3.8447757767905006
7.959522490470882,2.6815521093061205,14.926623719145038,-3.9552258198185974
7.9863380115639435,2.676293822793215,14.887071460946853,-4.065598106005787
8.013100949791875,2.671579011224084,14.846415479886796,-4.174939875427408
8.039816739904117,2.6659274025726454,14.804666081132522,-4.281803366264073
8.066476013929844,2.6574431465941974,14.761848047469881,-4.384175162557624
8.093050445395786,2.6437999677463346,14.718006295844305,-4.4794586755343495
8.11948844507325,2.622301321690141,14.67321170908896,-4.5645579935987755
8.145711458290151,2.5900529429751855,14.627566129152973,-4.636113996359732
8.171611987719903,2.5442678872887297,14.581204989189375,-4.690919717559405
8.19705466659279,2.48267885881567,14.534295792013781,-4.726479454562217
8.221881455180947,2.4039669542070365,14.487030997468159,-4.741585911171764
8.245921124723017,2.308064889751262,14.43961513835644,-4.736720296838027
8.269001773620529,2.1962045987726015,14.39224793538806,-4.714098440790622
8.290963819608255,2.070671038161876,14.345106950980153,-4.677314547760948
8.311670529989874,1.9343486860044492,14.298333805502542,-4.630706305773554
8.331014016849918,1.7902227558560533,14.252026742444807,-4.5786671298754635
8.348916244408478,1.6409814044391358,14.206240071146052,-4.5251062711606735
8.36532605845287,1.48878783873079,14.160989008434445,-4.47314827200777
8.380213936840178,1.3352130461218301,14.116257525714367,-4.4250548364468605
8.393566067301396,1.1812782904298496,14.072006977349899,-4.382295864440614
8.405378850205695,1.0275518809190813,14.028184018705492,-4.3456915775863765
8.415654369014886,0.8742593934509336,13.984727102929629,-4.315569185560711
8.424396962949395,0.7213845347192955,13.94157141107402,-4.291903106368201
8.431610808296588,0.5687515238455898,13.898652380010338,-4.274426873867293
8.437298323535044,0.41608787299035177,13.855908111271665,-4.2627158844662105
8.441459202264948,0.26307012789896567,13.813280952427004,-4.256245074987504
8.444089903543938,0.10935623887351245,13.770718501677129,-4.254427006462402
8.445183465932674,-0.045391909822831755,13.728174231612504,-4.256635513000542
8.444729546834445,-0.20149289860553066,13.685607876482498,-4.262219147792425
8.44271461784839,-0.3592348826406939,13.642985685004573,-4.270507654497476
8.439122269021983,-0.5188678151057726,13.600280608459599,-4.280813826979238
8.433933590870925,-0.6805976796511486,13.557472470189806,-4.2924324494678805
8.427127614074413,-0.8445820027888993,13.514548145695127,-4.304637520604482
