th1 (rad),w1 (rad/s),th2 (rad),w2 (rad/s)
0.7023956109652567,-2.8231698263918674,2.663857557005754,-2.616581090057924
0.674163912701338,-2.8816830305707497,2.6376917461051748,-2.7576182444251742
0.6453470823956305,-2.935400882946218,2.6101155636609232,-2.902214443217898
0.6159930735661684,-2.9838288780962903,2.5810934192287442,-3.0500358484117394
0.5861547847852054,-3.0264471712845777,2.5505930607446268,-3.2007064037515067
0.5558903130723597,-3.062713774366352,2.518585996707112,-3.3538099430113526
0.5252631753286962,-3.0920686220987865,2.4850478972769983,-3.508893435967016
0.4943424891077083,-3.113938539615804,2.449958962917328,-3.665471498235851
0.46320310371155027,-3.127743114062762,2.4133042479349696,-3.8230322770997165
0.4319256725709226,-3.1329014378751734,2.3750739251639725,-3.9810448040893625
0.4005966581921709,-3.1288396474618643,2.3352634771230787,-4.138967875639519
0.36930826171755227,-3.1149991291215393,2.2938737983666835,-4.296260485046613
0.3381582704263369,-3.0908452045811936,2.250911193516217,-4.452393782423836
0.30724981838052495,-3.0558760432132352,2.206387255691979,-4.606864485429982
0.2766910579483926,-3.009631479489425,2.1603186108376793,-4.759209604578527
0.24659474315349836,-2.9517013464802906,2.112726514791894,-4.909022286764457
0.21707772968869546,-2.881732874236944,2.0636362919242495,-5.055968524802329
0.188260400946326,-2.799436651529116,2.013076606676226,-5.199804436384266
0.16026603443103485,-2.7045906167182645,1.9610785623123834,-5.340393791343428
0.1332201282638522,-2.597041533983687,1.907674624398949,-5.477725470454172
0.10724971292401533,-2.476703428579176,1.8528973696944073,-5.61193058086147
0.08248267863822357,-2.3435525006053446,1.7967780638857926,-5.743299039708933
0.05904715363217013,-2.197618108981295,1.7393450734887033,-5.8722955729017325
0.03707097254235718,-2.0389695104922136,1.6806221177596858,-5.999575260402718
0.016681277437435044,-1.8676981449228582,1.6206263651556587,-6.125998987957291
-0.0019957040117935393,-1.6838953678084334,1.5593663752760858,-6.252649425948904
-0.018834657689877875,-1.487625642340205,1.4968398810165968,-6.380848428409591
-0.03371091411327992,-1.27889531739583,1.4330313967325008,-6.512176994028145
-0.04649986728723822,-1.057617268679008,1.3679096267922193,-6.648499095621231
-0.0570760399740283,-0.823571938835959,1.3014246358360069,-6.791990654052145
-0.0653117593623879,-0.5763658400571803,1.2335047292954855,-6.94517449501611
-0.0710754177629597,-0.3153897017355494,1.1640529843453244,-7.110960866452234
-0.07422931478031519,-0.03978079135117113,1.092943375680802,-7.29269018511833
-0.0746271226938269,0.2516012527049346,1.0200164738296187,-7.494168483209207
-0.07211111016677756,0.5601660639338955,0.9450747889975266,-7.719673302951869
-0.0665094495274386,0.8875135383383277,0.8678780559680079,-7.973882254442059
-0.05763431414405533,1.2352090434058745,0.7881392334235874,-8.261626339571018
-0.045282223709996586,1.6042684767323867,0.7055229700278772,-8.587275108138885
-0.02923953894267272,1.9940877546799372,0.6196502189464884,-8.953392168963806
-0.009298661395873348,2.4003708345399035,0.5301162972568504,-9.358043261155062
0.014705046949525687,2.8114544296417745,0.43653586464529975,-9.789903387970877
0.042819591245943436,3.2027194009728204,0.338636830765591,-10.220667675612287
0.07484678525567165,3.5307284512961763,0.2364301540094681,-10.596887737609672
0.11015406976863341,3.7339230125759264,0.13046127663337137,-10.840445849298064
0.1474932998943927,3.7518083330644907,0.022056818140390733,-10.873907523363375
0.1850113832250376,3.5627068788591347,-0.08668225709324302,-10.670842947105493
0.22063845201362894,3.2057922413336724,-0.19339068656429798,-10.284473471496593
0.2526963744269657,2.755211685845977,-0.2962354212792639,-9.811784376187877
0.28024849128542545,2.2761252843823017,-0.39435326504114265,-9.334866852690231
0.30300974412924847,1.8062691164849602,-0.487701933568045,-8.897919046761695
0.32107243529409807,1.361245064686511,-0.576681124035662,-8.515801125218116
0.3346848859409632,0.944690378696796,-0.6618391352878431,-8.18821118995608
0.3441317897279311,0.555176837064635,-0.743721247187404,-7.908897545942795
0.3496835580985775,0.18967871830635868,-0.8228102226468319,-7.670085888667839
0.35158034528164106,-0.1549377915012708,-0.8995110815335103,-7.464253375506136
0.35003096736662836,-0.4813625469830334,-0.9741536152885717,-7.284698368040601
0.34521734189679804,-0.7916922768919213,-1.0470005989689777,-7.125625586621337
0.33730041912787884,-1.0874416214281024,-1.118256854835191,-6.982062480741696
0.3264260029135978,-1.369610880423905,-1.188077479642608,-6.849735343837404
0.31272989410935875,-1.638768629640368,-1.256574833080982,-6.724953096264193
0.29634220781295506,-1.8951335847546469,-1.323824364043624,-6.604513452286725
0.27739087196540857,-2.1386507804918504,-1.3898694985664912,-6.4856331225235655
0.25600436416049005,-2.369061147663435,-1.454725829791727,-6.365898972313254
0.2323137526838557,-2.5859647879832655,-1.5183848195148595,-6.243235679890268
0.20645410480402304,-2.788878356067207,-1.5808171763137622,-6.115885362480509
0.17856532124335098,-2.97728670095496,-1.6419760299385673,-5.982395043237794
0.14879245423380139,-3.1506886200407127,-1.7017999803709452,-5.841608406943149
0.11728556803339427,-3.308636372319929,-1.7602160644403766,-5.692658927923011
0.08419920431019498,-3.4507685307525984,-1.8171426537196067,-5.534962109696292
0.04969151900266899,-3.576835823343081,-1.8724922748165695,-5.368205228870919
0.013923160769238184,-3.686719791018702,-1.9261743271052787,-5.192333600630368
-0.022944037140948836,-3.7804443359877813,-1.9780976631115823,-5.007532951036034
-0.06074848050082665,-3.858180501918744,-2.0281729926219425,-4.814207964576396
-0.09933028552001409,-3.920245076429176,-2.0763150722677066,-4.612957453155065
-0.13853273628430585,-3.9670938066322545,-2.1224446467992575,-4.404546855620679
-0.1782036743506284,-3.999310152590954,-2.1664901153554643,-4.189878928324235
-0.21819677587653794,-4.017590567284687,-2.208388904638707,-3.9699635413688776
-0.2583726815493848,-4.022727291518982,-2.248088540052396,-3.745887473576926
-0.29859995446457466,-4.015589601251061,-2.285547414788165,-3.5187850253813138
-0.3387558504770853,-3.9971043587678246,-2.320735265041978,-3.289810164453244
-0.3787268940647635,-3.9682366128404882,-2.353633366686511,-3.060110800609612
-0.4184092601931684,-3.9299708781083877,-2.3842344746926067,-2.830805665176329
-0.4577089689742523,-3.8832936083591783,-2.41254253134437,-2.602964150945447
-0.49654190505784407,-3.829177266412941,-2.4385721728538243,-2.3775893538783888
-0.5348336777219734,-3.7685662868653136,-2.4623480663926083,-2.1556044467853845
-0.5725193405906266,-3.702365127663937,-2.483904110860462,-1.9378424083783985
-0.6095429918672659,-3.6314285128668127,-2.503282534944246,-1.7250390294664903
-0.645857276995934,-3.5565538828774295,-2.5205329252389106,-1.5178290241438417
-0.6814228158247083,-3.478475991470314,-2.535711215480349,-1.3167449911502913
-0.7162075757394114,-3.3978635228796694,-2.548878665391852,-1.1222189029794358
-0.7501862109682081,-3.3153175489425877,-2.5601008544216466,-0.9345857510124488
-0.783339386457634,-3.231371607099487,-2.569446711931771,-0.7540889459352762
-0.8156531025286289,-3.146493155475935,-2.576987601391124,-0.5808870642579593
-0.8471180340833883,-3.0610861508593867,-2.5827964720337033,-0.4150615425019093
-0.8777288955919821,-2.975494497782555,-2.5869470874587224,-0.2566249477226078
-0.9074838405698077,-2.8900061300500517,-2.5895133369359487,-0.10552949268543443
-0.9363839018703082,-2.8048575073707185,-2.590568631862803,0.03832448803404359
-0.9644324769440153,-2.7202383366143477,-2.590185386982463,0.1750803326789553
-0.9916348603101588,-2.6362963570483515,-2.5884345836556735,0.3049172968490436
-1.0179978238806424,-2.5531420594965812,-2.585385410687183,0.42804337726267117
-1.0435292444756081,-2.470853238906475,-2.581104976914556,0.5446887989808874
-1.068237776864673,-2.389479307002402,-2.5756580889247473,0.6551002113969806
-1.0921325699346969,-2.309045315699913,-2.5691070868107775,0.7595356061239515
-1.115223023091696,-2.22955566232521,-2.561511730749538,0.8582599445314644
-1.137518579714948,-2.15099746432489,-2.5529291313042233,0.9515414636823618
-1.159028554358197,-2.073343604206184,-2.5434137166674,1.039648616100589
-1.179761990400259,-1.9965554552241773,-2.533017230506394,1.122847590317392
-1.1997275449525007,-1.920585305230001,-2.5217887546032203,1.2014003545915795
-1.2189333980048007,-1.8453785005511048,-2.5097747510573045,1.2755631647095953
-1.2373871830103118,-1.770875334227462,-2.4970191194102087,1.3455854775455478
-1.2550959363525864,-1.6970127037831186,-2.4835632646347534,1.4117092144078682
-1.2720660633904177,-1.6237255633336305,-2.4694461724906747,1.4741683215415482
-1.288303319023754,-1.5509481935285772,-2.454704489275259,1.5331885790324198
-1.3038128009590397,-1.4786153108652687,-2.4393726034849346,1.588987613420681
-1.3185989540676923,-1.4066630354985992,-2.4234827273507276,1.6417750733199872
-1.3326655844226782,-1.3350297339856747,-2.407064976617528,1.691752931085214
-1.346015881762535,-1.2636567505820817,-2.3901474473066755,1.7391158769768633
-1.3586524492683558,-1.192489037863695,-2.3727562885369067,1.7840517752923553
-1.3705773396469927,-1.1214756946795186,-2.354915770783983,1.8267421545813478
-1.3817920965937878,-1.0505704168304244,-2.3366483492381693,1.8673627063790033
-1.392297800762092,-0.9797318634909337,-2.3179747221743794,1.9060837689520749
-1.4020951193970015,-0.9089239403161731,-2.2989138844848584,1.9430707744526978
-1.4111843588001631,-0.8381159984691767,-2.2794831767403316,1.9784846397209752
-1.4195655187848548,-0.7672829475249062,-2.259698330343122,2.012482082880705
-1.4272383482601039,-0.6964052794090124,-2.2395735095143148,2.0452158499387165
-1.434202401054194,-0.6254690002521465,-2.2191213510149277,2.07683483791904
-1.4404570910567156,-0.5544654673089384,-2.1983530026357374,2.1074841037074554
-1.4460017457298049,-0.4833911289078479,-2.1772781615986627,2.1373047507880494
-1.4508356570188834,-0.4122471667418082,-2.1559051140907823,2.1664336894222758
-1.4549581286863016,-0.3410390416295268,-2.1342407771965597,2.195003269512817
-1.4583685191025968,-0.26977594609414424,-2.1122907445014314,2.2231407893282347
-1.4610662785635382,-0.19847016961348984,-2.090059336608149,2.2509678873212025
-1.4630509802596732,-0.12713638506642136,-2.067549657734937,2.2785998283045883
-1.4643223441103375,-0.055790867590844756,-2.044763659451891,2.3061446990891206
-1.464880252786246,0.015549340364569397,-2.021702212461,2.3337025321637284
-1.4647247593826003,0.08686730170911154,-1.9983651871393624,2.361364378957033
-1.4638560863655092,0.15814707709104883,-1.974751543349792,2.389211356525879
-1.4622746155945987,0.22937461753251503,-1.9508594297845332,2.4173136930848527
-1.4599808694192735,0.30053863693690297,-1.9266862928536848,2.4457297985792374
-1.4569754830499044,0.37163144370914103,-1.9022289948678923,2.4745053865248035
-1.4532591686128131,0.4426497108769206,-1.8774839410026443,2.50367267265203
-1.4488326715040438,0.5135951647255901,-1.852447214276124,2.5332496746007087
-1.4436967198567878,0.5844751729912886,-1.8271147175301168,2.5632396351404774
-1.4378519681268749,0.6553032150170028,-1.801482321178712,2.59363058928097
-1.4312989359767048,0.726099217888471,-1.7755460152859024,2.6243950933125055
-1.4240379437978201,0.7968897443688543,-1.7493020643527772,2.655490131393565
-1.4160690463541317,0.8677080204023211,-1.7227471630388416,2.6868572128511
-1.4073919661501084,0.9385937920427321,-1.6958785909103307,2.7184226709219588
-1.3980060282296811,1.0095930038959027,-1.6686943642011112,2.7500981712382306
-1.3879100981907222,1.080757293574769,-1.6411933824887288,2.7817814359140716
-1.3771025252549745,1.1521432993004732,-1.613375568129588,2.8133571865738496
-1.3655810922619698,1.2238117806830395,-1.5852419962638495,2.844698307012994
-1.3533429744551393,1.2958265559132818,-1.5567950131937196,2.875667223356325
-1.3403847088960066,1.3682532620959922,-1.5280383409601563,2.9061174965533185
-1.3267021762750466,1.4411579492177318,-1.4989771659946232,2.9358956188447247
-1.3122905967828693,1.5146055221890231,-1.4696182098061759,2.964843002516251
-1.297144541560979,1.5886580494007243,-1.4399697797810134,2.9927981459359048
-1.2812579610669719,1.663372960114825,-1.4100417983216542,3.0195989587046634
-1.2646242314658236,1.7388011565663057,-1.3798458087346075,3.0450852249107654
-1.2472362199001605,1.814985069667299,-1.3493949564855,3.069101181140633
-1.2290863692034875,1.8919566894700517,-1.3187039446740936,3.091498184208913
-1.210166802308787,1.9697356028899025,-1.2877889628320045,3.1121374426107904
-1.190469446279888,2.048327071504513,-1.2566675884058967,3.1308927854674335
-1.1699861755648429,2.1277201815058886,-1.2253586605512223,3.147653443116199
-1.148708973749784,2.207886096161367,-1.1938821261200603,3.162326814256522
-1.1266301127881704,2.2887764386176563,-1.162258857977495,3.1748411953482445
-1.103742348401994,2.370321829836442,-1.1305104460240125,3.1851484483200783
-1.0800391301036294,2.4524306032424867,-1.0986589615408118,3.1932265820641823
-1.0555148240712044,2.5349877147132682,-1.06672669572017,3.199082221130171
-1.0301649469240717,2.617853864282589,-1.0347358735088683,3.2027529309855782
-1.0039864082812457,2.7008648447895847,-1.0027083441990126,3.2043093627755046
-0.9769777598333499,2.783831133035887,-0.9706652505712575,3.2038571714521167
-0.949139448502991,2.866537741063695,-0.9386266788567363,3.201538649447056
-0.9204740710923541,2.94874434902461,-0.9066112923622658,3.197534004017051
-0.890986627602108,3.0301857466561946,-0.8746359523220952,3.192062190656859
-0.860684770135546,3.1105726172521804,-0.8427153304155266,3.1853811986134475
-0.8295790439630242,3.18959270554372,-0.8108615184293921,3.1777876690807902
-0.797683116907587,3.2669124181248326,-0.7790836417385842,3.169615714113393
-0.7650139927263386,3.342178910654388,-0.7473874845974503,3.161234797128109
-0.7315922036197947,3.41502271846139,-0.7157751366261692,3.153046536886323
-0.6974419764351808,3.4850609845879097,-0.6842446712573059,3.14548030905094
-0.6625913665893017,3.55190132991815,-0.6527898681667965,3.1389875456461485
-0.6270723532901202,3.6151463922872806,-0.6213999927103351,3.134034675285921
-0.5909208893672474,3.674399034332794,-0.5900596459574758,3.131094707015415
-0.5541768990239194,3.729268183293453,-0.5587486988873217,3.1306375374012463
-0.5168842171909849,3.7793752212583884,-0.5274423235133092,3.1331191511358822
-0.47909046497840097,3.8243607944061075,-0.4961111320019504,3.1389699841649907
-0.4408468570343399,3.863891859086735,-0.4647214321603005,3.1485828167069565
-0.4022079384434726,3.897668737102116,-0.4332356039932309,3.162300650747513
-0.3632312510724514,3.925431918849578,-0.4016125974857558,3.1804050907662273
-0.32397693188395565,3.946968337427255,-0.36980854657809353,3.203105776276217
-0.2845072485096831,3.962116844117319,-0.3377774888153314,3.2305314015702535
-0.24488608006850993,3.97077264789408,-0.30547217479962885,3.2627227978512217
-0.20517835358956912,3.972890537194564,-0.27284494682111665,3.2996284477647646
-0.16544944821762347,3.9684867758090965,-0.23984866234346902,3.341102660855268
-0.1257645804595325,3.9576396478790956,-0.20643763573491633,3.386906474924093
-0.08618818398074155,3.9404887092461482,-0.1725685709856754,3.4367111805983526
-0.04678329688828006,3.9172328733266344,-0.13820145917969187,3.4901042132955538
-0.00761096815501372,3.888127510607555,-0.10330041704673634,3.5465970345919713
0.03127030695106183,3.8534807663195294,-0.06783444670081662,3.6056345453742695
0.06980511461425712,3.813649299375827,-0.03177810124707393,3.666605541415933
0.10794160760801538,3.7690336197349583,0.004887954167085408,3.7288537370469452
0.14563194380536498,3.7200731565872642,0.04217649153755486,3.791688937713994
0.18283267537123762,3.6672411338187256,0.0800933809146948,3.8543980269314018
0.21950508670942487,3.6110392704292704,0.11863736118400882,3.916255534926248
0.2556154794137176,3.551992269978043,0.1577999165332713,3.976533662492261
0.29113540211349803,3.4906420215877634,0.1975652531581939,4.034511732538476
0.3260418223293757,3.427541410964433,0.23791037048357866,4.089485123685134
0.36031723643902,3.36324763705853,0.27880522172043,4.14077379725946
0.39394971280960533,3.2983149505493303,0.3202129596930246,4.187730555639924
0.42693286231509864,3.2332867746962175,0.36209026524942384,4.229749162918985
0.45926573006206084,3.1686872357404194,0.40438775687861367,4.266272417825561
0.49095260241946503,3.105012215090372,0.4470504810568693,4.296800196525929
0.5220027245703688,3.0427201323561737,0.4900184830221286,4.320897385907491
0.5524299258939305,2.982222767299217,0.5332274568812035,4.338201517087644
0.5822521535669226,2.923876517598202,0.57660947205208,4.348429799058121
0.6114909187429046,2.867974553977023,0.6200937700426612,4.3513851613064
0.6401706642826749,2.8147403608813417,0.6636076216557252,4.346960860208195
0.6683180678914883,2.764323128549996,0.7070772302578071,4.335143202432555
0.6959612991769882,2.71679538569817,0.7504286622821327,4.316011998553417
0.7231292530339699,2.672153133765276,0.7935887822676668,4.289738480987983
0.7498507843716227,2.6303185753008784,0.8364861670775466,4.256580590813987
0.7761539701246315,2.591145339887579,0.8790519729856865,4.216875736605308
0.8020654235235073,2.5544259250772194,0.9212207303517396,4.171031327549089
0.8276096827742795,2.5199009114476665,0.9629310436272305,4.119513554295512
0.8528086918887562,2.4872693999018733,1.0041261791701857,4.062835010723158
0.8776813858877749,2.4562000673874262,1.0447545292774172,4.001541804091035
0.9022433865616492,2.426342246092946,1.0847699473183274,3.936200787578718
0.9265068090225786,2.3973364933800982,1.1241319551941147,3.867387476646582
0.9504801739563796,2.3688242209778827,1.1628058299605806,3.7956750955618554
0.9741684161661585,2.340456074815171,1.200762580916199,3.7216250630655643
0.9975729769143101,2.311898884118776,1.2379788315468547,3.645779086149415
1.0206919657554978,2.28284111589597,1.274436622408349,3.5686529041407637
1.0435203769144574,2.2529968689984,1.3101231514497567,3.490731622169021
1.0660503456044415,2.2221085157608456,1.3450304676714468,3.4124664983532536
1.0882714307620498,2.18994814800648,1.3791551326549794,3.3342730026634007
1.1101709122421146,2.1563180103116366,1.4124978626816134,3.256529943967533
1.131734092345231,2.1210501108984974,1.4450631621212886,3.1795794600587137
1.152944593454216,2.084005194118705,1.4768589567218757,3.1037276777015714
1.173784645395403,2.0450712428166264,1.5078962334988915,3.029245870585017
1.1942353578235694,2.0041616579034685,1.5381886922047416,2.9563719680643064
1.214276974402604,1.9612132393676671,1.5677524118853847,2.8853122933901125
1.2338891067962807,1.9161840699494292,1.5966055348192858,2.8162434345111422
1.253050947495775,1.8690513812868272,1.6247679691643973,2.7493141721893863
1.2717414613086433,1.8198094633268833,1.652261110886291,2.6846474084945102
1.2899395559419122,1.768467661538567,1.679107584971236,2.622342053667239
1.307624232557298,1.7150484929858592,1.7053310055079085,2.5624748411066243
1.3247747174871565,1.6595859014298193,1.7309557539189748,2.5051020492673786
1.3413705765014547,1.6021236630256557,1.7560067744116485,2.4502611160482344
1.3573918131317113,1.5427139475124596,1.7805093855721308,2.397972136309548
1.372818952606836,1.481416034704074,1.8044891069352262,2.348239236935465
1.3876331129538766,1.418295182247889,1.8279714993045808,2.3010518267458626
1.4018160647763556,1.3534216377318833,1.8509820175720395,2.2563857208851665
1.4153502811536744,1.2868697860430947,1.873545874780891,2.2142041413141382
1.4282189790141053,1.218717421215532,1.8956879161940325,2.1744585968821433
1.4404061532262606,1.1490451307020009,1.917432502162854,2.1370896482736597
1.4518966045332806,1.0779357789563577,1.9388033986455906,2.1020275649609084
1.4626759623228442,1.0054740763543808,1.9598236742951998,2.069192883163706
1.472730703086388,0.9317462187826447,1.9805156031268367,2.038496875686609
