th1 (rad),w1 (rad/s),th2 (rad),w2 (rad/s),a1 (rad/s^2),a2 (rad/s^2)
5.6747361430521766,2.2965112275394826,1.66788917261013,2.7232626027126163,5.014591964276816,-10.517007836159184
5.697701255327571,2.346657147182251,1.695121798637256,2.6180925243510247,4.425016224431979,-11.017453950911776
5.721167826799394,2.3909073094265705,1.7213027238807663,2.507917984841907,3.8420076022199026,-11.503228014789075
5.745076899893659,2.4293273854487696,1.7463819037291854,2.392885704694016,3.2686011347582538,-11.970924193499885
5.769370173748147,2.462013396796352,1.7703107607761257,2.273176462759017,2.7077775841197216,-12.417385615688813
5.79399030771611,2.4890911726375493,1.793042525403716,2.149002606602129,2.1624474916231504,-12.839711406633693
5.818881219442486,2.5107156475537806,1.8145325514697372,2.020605492535792,1.635435123736208,-13.235266548780528
5.843988375918023,2.5270699987911427,1.8347386063950952,1.8882528270479866,1.1294611640116237,-13.601695648848558
5.869259075905934,2.538364610431259,1.853621134665575,1.752235870559501,0.6471233993930147,-13.936941053847038
5.894642722010247,2.5448358444251893,1.8711434933711701,1.6128664600210305,0.19087511990849093,-14.23926506756746
5.920091080454499,2.5467445956242742,1.8872721579713805,1.470473809345356,-0.236998549694362,-14.507275345116831
5.945558526410742,2.544374610127331,1.901976896064834,1.3254010558941878,-0.6344056887995485,-14.739951953595314
5.971002272512015,2.5380305532393352,1.9152309066237758,1.1780015363582346,-0.9994728807192833,-14.9366741415261
5.996382578044408,2.5280358244321426,1.9270109219873581,1.0286347949429735,-1.3305693585306222,-15.097244603726692
6.02166293628873,2.514730130846836,1.9372972699367879,0.8776623489057066,-1.6263284121351498,-15.221908989192618
6.046810237597199,2.4984668467254845,1.946073893425845,0.7254432590137804,-1.8856644525459463,-15.311368583052712
6.071794906064453,2.479610202200025,1.9533283260159828,0.5723295731832533,-2.1077842610318513,-15.36678448319758
6.096591008086453,2.4585323595897064,1.9590516217478153,0.41866172835127746,-2.292191218002857,-15.389772150403903
6.12117633168235,2.435610447409678,1.963238239031328,0.26476400684723844,-2.4386816806850096,-15.382385883536562
6.145532436156447,2.411223630602828,1.9658858790998004,0.11094014801187282,-2.54733312080024,-15.347093494008442
6.169644672462476,2.3857502993948256,1.9669952805799191,-0.042530786928211606,-2.618484099157334,-15.286742158441138
6.193502175456424,2.359565458403252,1.966569972710637,-0.195398208512623,-2.652706598471509,-15.20451705262962
6.217097830040457,2.333038392418537,1.9646159906255107,-0.3474433790389192,-2.650771618861952,-15.103894862621996
6.240428213964642,2.3065306762299174,1.9611415568351216,-0.49848232766513917,-2.613609231395654,-14.98859459616423
6.263493520726941,2.2803945839159607,1.9561567335584702,-0.6483682736267815,-2.5422644647152004,-14.862528265666905
6.286297466566101,2.254971939268809,1.9496730508222024,-0.7969935562834506,-2.4378504621753465,-14.729753987227523
6.308847185958789,2.2305934346470555,1.941703115259368,-0.9442910961557258,-2.3015002984073845,-14.594433860497947
6.33115312030526,2.2075784316629816,1.9322602042978108,-1.0902354347607053,-2.1343187017010568,-14.460798694354034
6.353228904621889,2.186235244645971,1.9213578499502038,-1.2348434217042457,-1.9373347166368473,-14.33312126216276
6.375091257068349,2.1668618974796026,1.9090094157331614,-1.3781746343258732,-1.7114560894262745,-14.215699346263383
6.396759876043145,2.1497473365853397,1.8952276693899026,-1.520331627788507,-1.4574258982260655,-14.112849396109448
6.418257349408998,2.135173077603079,1.8800243531120175,-1.6614601217496014,-1.1757817151453462,-14.028911198875374
6.439609080185029,2.1234152604516257,1.8634097518945216,-1.8017492337383552,-0.8668174099537168,-13.968263549449215
6.4608432327895455,2.1147470863520885,1.8453922595571381,-1.9414318692328474,-0.5305476255340458,-13.935350491567693
6.481990703653066,2.109441610096748,1.8259779408648096,-2.0807853741485243,-0.1666750186756718,-13.934717238623016
6.503085119754034,2.1077748599099912,1.8051700871233243,-2.2201325465347543,0.2254393686407506,-13.971054289006922
6.524162868353134,2.110029253596399,1.7829687616579768,-2.3598430894248237,0.6468016663525015,-14.0492473905629
6.545263160889098,2.116497270259924,1.7593703307637285,-2.5003355633304527,1.0988046897561559,-14.17442966478733
6.566428133591697,2.1274853171574857,1.734366975130424,-2.642079859978326,1.5832377117392626,-14.352030031470916
6.587702986763272,2.143317694274878,1.7079461765306407,-2.7856001602930354,2.1022799932525356,-14.58780853821087
6.609136163706021,2.1643404942074036,1.6800901749277104,-2.931478245675144,2.658467079277968,-14.887863442123388
6.630779568648094,2.1909251650001833,1.650775392470959,-3.080356880096378,3.2546117137442923,-15.258585561108118
6.6526888202980965,2.223471282137626,1.6199718236699951,-3.2329427357074594,3.893649877600021,-15.706520378066049
6.674923533119473,2.2624077809136263,1.5876423963129205,-3.39000793948812,4.578364521911761,-16.238074318755256
6.697547610928609,2.308191426132744,1.5537423169180393,-3.5523886826756725,5.310911418413161,-16.85896344997651
6.720629525189937,2.3613005403168756,1.5182184300912827,-3.7209783171754376,6.092027869420664,-17.573243078864696
6.744242530593105,2.4222208190110823,1.4810086469195283,-3.8967107479640846,6.919738607579841,-18.381665138593124
6.768464738783216,2.4914182050868807,1.4420415394398873,-4.080527399350016,7.787275847814116,-19.278974888807657
6.793378920834084,2.569290963565022,1.4012362654463872,-4.2733171482380925,8.6797970514716,-20.24957128787234
6.819071830469735,2.656088934079738,1.3585030939640064,-4.4758128611168155,9.569325521648874,-21.260729846970136
6.845632719810532,2.7517821892962266,1.3137449653528381,-4.688420159586517,10.407216015610947,-22.252403865349784
6.873150541703494,2.8558543494523363,1.2668607637569729,-4.910944198240015,11.11354588535802,-23.122733108472534
6.901709085198018,2.9669898083059163,1.2177513217745728,-5.142171529324741,11.563606749418211,-23.709424804815306
6.931378983281077,3.0826258758000984,1.1663296064813253,-5.379265777372894,11.574039438916294,-23.77040157135844
6.962205242039078,3.1983662701892612,1.1125369487075965,-5.616969793086478,10.896483885582551,-22.974442941206107
6.99418890474097,3.3073311090450868,1.0563672507767317,-5.846714222498539,9.235585456770295,-20.92495629640588
7.0272622158314215,3.3996869636127895,0.9979001085517463,-6.055963785462598,6.316698778805132,-17.25184352900537
7.061259085467549,3.4628539514008407,0.9373404706971202,-6.228482220752652,2.020661428549353,-11.795517187322696
7.0958876249815575,3.4830605656863343,0.8750556484895937,-6.346437392625879,-3.4471656290170287,-4.837771767869709
7.130718230638421,3.448588909396164,0.8115912745633349,-6.3948151103045765,-9.473285632073381,2.7857633684385865
7.165204119732382,3.35385605307543,0.7476431234602892,-6.366957476620191,-15.180461149605726,9.887430693748843
7.198742680263137,3.202051441579373,0.6839735486940872,-6.268083169682702,-19.77983548492061,15.41268529016294
7.23076319467893,3.004253086730167,0.6212927169972602,-6.113956316781073,-22.882621743755198,18.863797311311785
7.260805725546232,2.7754268692926147,0.5601531538294494,-5.925318343667955,-24.54675267016763,20.354903131991275
7.288559994239159,2.5299593425909386,0.5008999703927699,-5.721769312348043,-25.098521129373125,20.35961264092857
7.3138595876650685,2.278974131297207,0.4436822772692895,-5.518173185938757,-24.922275772055873,19.420310194227785
7.336649328978041,2.0297513735766484,0.3885005454099019,-5.323970083996479,-24.33780402495354,17.982221661721145
7.356946842713807,1.786373333327113,0.3352608445699371,-5.144147867379267,-23.5667192618824,16.350939418828517
7.374810576047078,1.550706140708289,0.2838193658961444,-4.980638473190982,-22.744923506990432,14.712502684586324
7.39031763745416,1.3232569056383845,0.2340129811642346,-4.833513446345119,-21.947463380504797,13.16931995725121
7.403550206510544,1.1037822718333365,0.1856778467007834,-4.701820246772607,-21.210715621181222,11.77149380089264
7.414588029228877,0.8916751156215244,0.13865964423305732,-4.5841053087636805,-20.548183758222002,10.538806050969255
7.423504780385093,0.6861932780393043,0.09281859114542051,-4.478717248253988,-19.96060064561493,9.474588891510832
7.430366713165486,0.48658727158315496,0.04803141866288064,-4.383971359338879,-19.442006412486226,8.573933910842017
7.435232585881318,0.2921672074582927,0.004191705069491847,-4.29823202023046,-18.983261169102455,7.828324416744638
7.438154257955901,0.10233459576726817,-0.03879061513281275,-4.219948776063013,-18.574011854061514,7.228127515653203
7.439177603913573,-0.08340552277334698,-0.08099010289344288,-4.147667500906482,-18.203759959400422,6.763848167961277
7.43834354868584,-0.26544312236735124,-0.1224667779025077,-4.080029019226869,-17.862420542429593,6.426685272445924
7.435689117462166,-0.44406732779164715,-0.1632670680947764,-4.01576216650241,-17.540601479543085,6.208704352133534
7.4312484441842495,-0.619473342587078,-0.2034246897598005,-3.9536751229810743,-17.229734564838775,6.10280705780742
7.4250537107583785,-0.7917706882354657,-0.24296144098961123,-3.892647052403,-16.922132666111047,6.102599628499954
7.417136003876024,-0.9609920148965762,-0.28188791151364123,-3.831621056118,-16.61101370277304,6.202217803796003
7.407526083727058,-1.1271021519243065,-0.32020412207482124,-3.76959887808004,-16.290512821408846,6.396140474025941
7.396255062207815,-1.290007280138395,-0.3579001108556216,-3.7056374733397806,-15.95569293893983,6.6790102890368095
7.383354989406431,-1.4495642095277934,-0.3949564855890194,-3.6388473704494126,-15.602557376797453,7.045471692392663
7.368859347311154,-1.605589783295768,-0.4313449592935135,-3.568392653525486,-15.228064649859197,7.49003261235397
7.352803449478196,-1.75787042979436,-0.4670288858287684,-3.4934923274019463,-14.830143473114326,8.006953715692761
7.335224745180252,-1.9061718645255032,-0.5019638091027878,-3.4134227902450185,-14.407705063688912,8.590167793782786
7.316163026534997,-2.0502489151623924,-0.536098037005238,-3.3275211123071906,-13.960649477711282,9.233230980045226
7.295660537383373,-2.189855409939505,-0.5693732481283098,-3.2351888025067383,-13.48986281616188,9.929306805078038
7.273761983283978,-2.324754038101124,-0.6017251361533772,-3.135895734455958,-12.99720253136199,10.671183430077177
7.250514442902967,-2.454726063414744,-0.6330840934979368,-3.029183900155186,-12.485468681449397,11.451323691824925
7.225967182268819,-2.5795807502292383,-0.6633759324994887,-2.914670663236937,-11.958359753337263,12.26194682334344
7.200171374766527,-2.699164347762611,-0.6925226391318581,-2.7920511950035025,-11.42041255726882,13.095139891348396
7.173179731288901,-2.813368473335299,-0.720443151081893,-2.6610997960900185,-10.876926647180062,13.942996139500625
7.145046046555548,-2.9221377398071,-0.7470541490427932,-2.5216698346950124,-10.333874703455548,14.797776580148811
7.115824669157477,-3.0254764868416553,-0.7722708473897434,-2.3736920688935244,-9.797801292423534,15.652090379645268
7.08556990428906,-3.1234544997658906,-0.7960077680786787,-2.2171711650970716,-9.275713353087891,16.49908888345015
7.054335359291401,-3.2162116332967696,-0.8181794797296494,-2.05218027626257,-8.774966615576592,17.332667583628673
7.022173242958433,-3.3039612994525354,-0.8387012824922752,-1.8788536004262832,-8.303152881485913,18.147670003172507
6.989133629963908,-3.3869928282673945,-0.8574898184965379,-1.6973769003945582,-7.867993641074508,18.940087416005394
6.955263701681234,-3.4656727646781396,-0.8744635875004835,-1.5079760262345043,-7.477245807152855,19.707248580785926
6.920606974034453,-3.540445222749668,-0.8895433477628285,-1.3109035404266451,-7.138625345893477,20.44799425014487
6.885202521806956,-3.611831476208603,-0.902652383167095,-1.1064235979251964,-6.859754209288005,21.162832077461964
6.8490842070448705,-3.6804290183014827,-0.9137166191463469,-0.8947952771505767,-6.6481351377142195,21.85406854566286
6.812279916861856,-3.746910369678625,-0.9226645719178527,-0.6762545916939482,-6.511157486896829,22.52591542327127
6.77481081316507,-3.812021944547593,-0.9294271178347921,-0.4509954374612355,-6.456135051891055,23.184568561506566
6.736690593719594,-3.876583295066504,-0.9339370722094045,-0.21914975184616983,-6.490373573893021,23.838255851792432
6.697924760768929,-3.941487030805434,-0.9361285697278662,0.019232806671754504,-6.621260603920558,24.49724769494565
6.658509890460875,-4.00769963684464,-0.9359362416611486,0.264205283621211,-6.8563625292627375,25.173815498395278
6.618432894092429,-4.076263262137267,-0.9332941888249365,0.5159434386051638,-7.203500812158161,25.88210839978673
6.577670261471056,-4.148298270258849,-0.9281347544388849,0.7747645226030311,-7.67075825890987,26.637890400436582
6.536187278768467,-4.225005852847947,-0.9203871092128546,1.041143426607397,-8.26633020166123,27.458030578482134
6.493937220239988,-4.307669154864559,-0.9099756749467807,1.3157237323922182,-8.99807419631163,28.359553204196782
6.450860528691342,-4.397649896827676,-0.8968184376228585,1.599319264434186,-9.872507479346545,29.35790778337341
6.406884029723065,-4.496374971621141,-0.8808252449785167,1.8928983422679202,-10.892825579328111,30.463871960496107
6.361920280006854,-4.6053032274144226,-0.8618962615558374,2.197537061872881,-12.055226153741625,31.67809473464091
6.31586724773271,-4.725855488951839,-0.8399208909371086,2.51431800921929,-13.342367937028508,32.981652833364556
6.268608692843191,-4.859279168322124,-0.8147777108449158,2.8441345375529354,-14.712147271970295,34.320091795400145
6.22001590115997,-5.006400641041827,-0.7863363654693865,3.187335455506937,-16.079248259312013,35.57741943739056
6.169951894749552,-5.167193123634947,-0.7544630109143171,3.5431096498808428,-17.28672110899197,36.536267156366186
6.118279963513203,-5.340060334724867,-0.7190319144155087,3.9084723214445045,-18.067085566675058,36.82363744104126
6.064879360165954,-5.520731190391618,-0.6799471912010637,4.276708695854917,-18.001779506798183,35.85483537611431
6.009672048262038,-5.700748985459599,-0.6371801042425146,4.63525704961606,-16.511906500520766,32.82218299637823
5.9526645584074425,-5.865868050464806,-0.590827533746354,4.963478879579842,-12.95448130259332,26.83306685283889
5.894005877902794,-5.995412863490739,-0.5411927449505556,5.231809548108231,-6.9200429433379655,17.33189227342279
5.8340517492678865,-6.064613292924119,-0.4888746494694733,5.405128470842459,1.288362641632057,4.776328777914691
5.773405616338645,-6.051729666507798,-0.4348233647610487,5.452891758621606,10.351349442987843,-8.936619768465455
5.712888319673567,-5.948216172077919,-0.38029444717483263,5.363525560936951,18.349893175786864,-21.06412070898531
5.653406157952788,-5.764717240320051,-0.32665919156546314,5.152884353847098,23.813908089251015,-29.50331799102791
5.595758985549588,-5.526578159427541,-0.27513034802699216,4.857851173936819,26.424623889355157,-33.78696886398876
5.540493203955313,-5.26233192053399,-0.22655183628762396,4.519981485296931,26.78562618835098,-34.76182713088624
5.487869884749973,-4.99447565865048,-0.18135202143465465,4.172363213988069,25.772913411743033,-33.66949004439106
5.437925128163468,-4.73674652453305,-0.13962838929477395,3.8356683135441583,24.10474120262638,-31.53523806230855
5.3905576629181375,-4.495699112506786,-0.10127170615933237,3.520315932921073,22.236001203582557,-29.014952589790433
5.345600671793069,-4.27333910047096,-0.06606854683012164,3.2301664070231686,20.4103310343541,-26.46602977803614
5.30286728078836,-4.069235790127419,-0.033766882759889955,2.965506109242807,18.739120805819308,-24.05766992646599
5.262174922887086,-3.8818445820692262,-0.0041118216674618825,2.7249294099781474,17.26125029692685,-21.854882642679907
5.223356477066393,-3.709232079099958,0.023137472432319593,2.506380583551348,15.979478755549842,-19.869983577985185
5.186264156275394,-3.5494372915444594,0.048201278267833075,2.3076807477714962,14.880391393898538,-18.091041479802456
5.15076978335995,-3.400633377605474,0.07127808574554803,2.1267703329734715,13.944628110388049,-16.496628734477973
5.116763449583895,-3.2611870965015934,0.09254578907528274,1.9618040456286918,13.15182439944768,-15.063072256201131
5.084151578618879,-3.1296688525071166,0.11216382953156966,1.8111733230666804,12.482809723778105,-13.767781709678447
5.052854890093808,-3.0048407552693357,0.13027556276223645,1.673495505969896,11.920435754916065,-12.590593415813217
5.022806482541115,-2.885636397720175,0.14701051782193542,1.5475895718117638,11.449749249082913,-11.514145786029681
4.993950118563913,-2.771138905229346,0.16248641354005305,1.432448113951467,11.057872937392942,-10.523807177462071
4.96623872951162,-2.6605601758554163,0.17681089467956773,1.3272100421768465,10.733774669922163,-9.607417845815812
4.939633127753066,-2.5532224291561945,0.1900829951013362,1.2311358637186884,10.468011061314803,-8.754973824504464
4.914100903461503,-2.4485423185430464,0.20239435373852308,1.143586125473644,10.252484308579575,-7.958312254995825
4.889615480276073,-2.3460174754572507,0.21383021499325952,1.0640030029236858,10.08022721412931,-7.210823364224236
4.8661553055215006,-2.245215203315958,0.22447024502249638,0.9918947692814434,9.94522006859851,-6.507197460681339
4.843703153488341,-2.1457630026299728,0.2343891927153108,0.92682279467463,9.84223788978657,-5.843207447211129
4.822245523462041,-2.047340623732107,0.24365742066205712,0.8683907202025187,9.766724463350922,-5.215523990977822
4.80177211722472,-1.9496733790985978,0.2523413278640823,0.8162354802927405,9.714689089017604,-4.621559356069236
4.782275383433734,-1.8525264882084218,0.26050368266700974,0.7700198867320481,9.682622088131865,-4.059335812371403
4.763750118551649,-1.7557002673271032,0.2682038815343302,0.7294265286083341,9.667425564741812,-3.527374886760461
4.746193115878378,-1.659026011679685,0.27549814682041357,0.6941527797407295,9.666356432588723,-3.024604222595999
4.7296028557615815,-1.5623624473537978,0.2824396746178209,0.6639067375147696,9.676979230939804,-2.550279320956972
4.713979231288043,-1.4655926550443998,0.28907874199296857,0.6384039443051999,9.697126713760943,-2.1039178923672592
4.699323304737599,-1.3686213879067903,0.29546278143602056,0.6173647653815273,9.724866596480844,-1.6852449314920015
4.685637090858531,-1.271372721941982,0.30163642908983584,0.6005123160666073,9.758473182200207,-1.2941469392731613
4.672923363639112,-1.17378799011998,0.30764155225050194,0.5875708466738756,9.796402869647872,-0.930633965375607
4.661185483737912,-1.0758239614235012,0.3135172607172407,0.5782645070201196,9.837272775323473,-0.5948083395719033
4.6504272441236765,-0.9774512336702665,0.3192999057874419,0.5723164236244005,9.87984188915918,-0.286839114788978
4.6406527317869735,-0.8786528147786747,0.3250230700236859,0.5694480324765108,9.92299433327795,-0.006941366768002999
4.631866203639187,-0.7794228714458953,0.330717550348451,0.5693786188088308,9.96572441291649,0.24464040618865002
4.624071974924728,-0.6797656273167304,0.3364113365365393,0.5718250228707172,10.007123242474286,0.46764545862195095
4.617274318651561,-0.5796943948919875,0.3421295867652465,0.5765014774569367,10.046366802414092,0.6618071547195131
4.611477374702641,-0.47923072686784657,0.3478946015398159,0.5831195490041319,10.08270533822115,0.8268610524410581
4.606685067433963,-0.3784036734856351,0.3537257970298572,0.5913881595285425,10.115454054121551,0.9625512066464236
4.6029010306991065,-0.27724913294441955,0.3596396786251426,0.6010136715950067,10.143985084556691,1.0686351329530321
4.6001285393696625,-0.17580928209885263,0.3656498153410927,0.6117000229245371,10.167720747848152,1.1448878271629723
4.598370446548674,-0.07413207462037111,0.3717668155703381,0.6231489011961668,10.186128100980428,1.191105190422487
4.59762912580247,0.027729206389433173,0.37799830458229977,0.6350599531003918,10.198714823502593,1.2071071671638591
4.597906417866365,0.1297163546244591,0.3843489041133037,0.6471310247720303,10.205026463364979,1.1927408607635943
