th1 (rad),w1 (rad/s),th2 (rad),w2 (rad/s),a1 (rad/s^2),a2 (rad/s^2)
2.3633397073411704,-2.6964878206467047,3.070142289775057,1.813633008165542,-5.276063635246189,-1.4093352735574654
2.3363748291347033,-2.7492484569991666,3.0882786198567125,1.7995396554299674,-5.296318586880801,-1.8164480271522419
2.3088823445647115,-2.8022116428679746,3.106274016411012,1.781375175158445,-5.331928061413042,-2.2399677518549312
2.280860228136032,-2.855530923482105,3.1240877681625965,1.7589754976398957,-5.385263805468477,-2.6794338392129076
2.2523049189012108,-2.9093835615367896,3.1416775231389953,1.7321811592477667,-5.458292417231422,-3.1351828058015108
2.2232110832858427,-2.9639664857091037,3.158999334731473,1.7008293311897515,-5.552632583438036,-3.6082813742006765
2.1935714184287516,-3.019492811543484,3.1760076280433704,1.6647465174477447,-5.669617092725973,-4.100450002655168
2.1633764903133166,-3.0761889824707436,3.192655093217848,1.623742017421193,-5.810353173887952,-4.613984765995
2.1326146004886093,-3.134292514209623,3.20889251339206,1.577602169761243,-5.975776472245582,-5.151682716736714
2.101271675346513,-3.194050278932079,3.2246685350896724,1.5260853425938758,-6.166695500821399,-5.71677334135418
2.069331172557192,-3.255717233940293,3.2399293885156113,1.468917609180334,-6.383824565586684,-6.312856633448671
2.036774000217789,-3.31955547959616,3.254618564607415,1.4057890428458473,-6.627803941446785,-6.943846662094238
2.0035784454218275,-3.3858335190106277,3.268676455035873,1.3363505762249048,-6.899206502800317,-7.613918269587139
1.9697201102317212,-3.454825584038631,3.282039960798122,1.2602113935290333,-7.198530154557179,-8.327453602295067
1.935171854391335,-3.5268108855842026,3.2946420747334124,1.1769368575060826,-7.526175342030879,-9.08898447162774
1.899903745535493,-3.6020726390045112,3.3064114433084733,1.0860470127898052,-7.882406716970864,-9.903125986254738
1.8638830191454479,-3.6808967061742197,3.3172719134363713,0.9870157529272579,-8.267297775146131,-10.774496447103912
1.8270740520837057,-3.763569683925681,3.327142070965644,0.8792707884562188,-8.680657030179487,-11.707618144566275
1.7894383552444488,-3.8503762542274758,3.335934778850206,0.762194607010556,-9.121934123897844,-12.706793474241541
1.750934592702174,-3.9415955954664543,3.3435567249203118,0.6351266722681406,-9.590104279021526,-13.77595076910141
1.7115186367475095,-4.03749663825667,3.349907991642993,0.4973671645771265,-10.083529772356947,-14.918454554703647
1.6711436703649427,-4.138331935980239,3.354881663288764,0.34818261903009,-10.59979775755461,-16.136875740202875
1.6297603510051404,-4.244329913555785,3.358363489479065,0.18681386162806127,-11.135534919773804,-17.43271877447596
1.5873170518695825,-4.355685262753523,3.3602316280953457,0.012486673883301685,-11.686201225593264,-18.806105265381028
1.5437601992420473,-4.472547275009456,3.360356494834179,-0.1755743787705086,-12.2458675456927,-20.255417221121938
1.4990347264919528,-4.5950059504663825,3.358600751046474,-0.378128550981728,-12.806985225607542,-21.776908112162022
1.453084666987289,-4.723075802722458,3.3548194655366568,-0.5958976321033482,-13.360159706136754,-23.364296422999004
1.4058539089600643,-4.856677399783825,3.3488604892156233,-0.8295405963333382,-13.893944825998107,-25.008364077984005
1.3572871349622262,-4.995616848043806,3.3405650832522897,-1.0796242371131783,-14.394679016168464,-26.696590532279583
1.307330966481788,-5.13956363820549,3.329768840881158,-1.346590142435974,-14.84638847384233,-28.412861385750595
1.2559353300997331,-5.2880275229439135,3.3163029394567984,-1.6307187562934802,-15.230784552313562,-30.13729653107876
1.203055054870294,-5.440335368467049,3.2999957518938636,-1.9320917216042677,-15.527381787923684,-31.846245035220633
1.1486517011856237,-5.595609186346286,3.280674834677821,-2.250554171956474,-15.713757984830753,-33.51248990029224
1.0926956093221607,-5.752746766194593,3.2581692929582564,-2.5856790709593964,-15.765967740863404,-35.10569356290329
1.0351681416602148,-5.910406443603227,3.2323125022486625,-2.936736006588429,-15.659105711847555,-36.59309349880706
0.9760640772241825,-6.066997500721703,3.202945142182778,-3.3026669415764998,-15.367997083439429,-37.94042750348098
0.9153941022169655,-6.2206774715560975,3.169918472767013,-3.6820712166113094,-14.867973068718872,-39.11303359074739
0.8531873275014045,-6.369357202243286,3.1330977606009,-4.073201552518784,-14.135673201618392,-40.077036219473385
0.7894937554789716,-6.51071393425947,3.092365745075712,-4.473971914713518,-13.149808986479698,-40.80050703772684
0.7243866161363769,-6.642212024124267,3.047626025928577,-4.881976985090787,-11.891829845567548,-41.2544832541231
0.6579644958951343,-6.761130322579942,2.998806256077669,-5.294521817632018,-10.346454893898139,-41.41374680208626
0.5903531926693348,-6.864594871518923,2.9458610379013486,-5.70865928565288,-8.502071798077505,-41.257314715449404
0.5217072439541456,-6.9496155894996985,2.88877444504482,-6.121232432807374,-6.351051223137678,-40.76866112325378
0.4522110880591486,-7.013126101731075,2.8275621207167463,-6.528919044039911,-3.890072158778837,-39.93577257662048
0.38207982704183785,-7.052026823318863,2.7622729302763473,-6.928276769806116,-1.120586710597424,-38.75121392754821
0.3115595588086492,-7.0632326904248375,2.6929901625782864,-7.315788909081598,1.9504412175956685,-37.21243154078337
0.24092723190440085,-7.043728278248881,2.6198322734874706,-7.6879132244894315,5.309422858716364,-35.32252446896431
0.17048994912191204,-6.9906340496617165,2.542953141242576,-8.041138469179074,8.934638163616176,-33.09165670158491
0.10058360862529488,-6.901287668025555,2.4625417565507854,-8.372055036194924,12.794446060915423,-30.539157311521308
0.03157073194503933,-6.7733432074164,2.378821206188836,-8.677446609310136,16.84548573492291,-27.696166135193486
-0.036162700129124675,-6.604888350067171,2.2920467400957345,-8.954408270662071,21.031314351940818,-24.608455358258315
-0.10221158362979638,-6.394575206547763,2.2025026573891138,-9.200492824244655,25.28205776372668,-21.33884011572149
-0.16615733569527402,-6.141754628910496,2.110497729146667,-9.41388122540187,29.51568156513009,-17.968453551266307
-0.22757488198437897,-5.846597813259195,2.0163589168926483,-9.593565760914533,33.641362574779905,-14.596181320243709
-0.28604086011697094,-5.510184187511396,1.920423259283503,-9.73952757411697,37.56512698676693,-11.335784967851833
-0.3411427019920849,-5.134532917643727,1.8230279835423333,-9.852885423795488,41.19745255082429,-8.310694659170686
-0.39248803116852216,-4.722558392135484,1.7244991293043785,-9.935992370387195,44.46201513162161,-5.647038281137218
-0.439713615089877,-4.277938240819268,1.6251392056005065,-9.992462753198568,47.304359338090634,-3.466037352006101
-0.4824929974980697,-3.804894647438362,1.525214578068521,-10.02712312671863,49.699153240123216,-1.8772538423099643
-0.5205419439724533,-3.3079031150371296,1.4249433468013346,-10.04589566514173,51.65493686773323,-0.9741811085531803
-0.5536209751228246,-2.7913537463597975,1.3244843901499173,-10.055637476227261,53.215851034237154,-0.8333232378937191
-0.5815345125864225,-2.259195236017426,1.2239280153876446,-10.063970708606199,54.4605689447048,-1.5173233468249943
-0.6041264649465968,-1.714589546570378,1.1232883083015825,-10.079143942074449,55.499319871564815,-3.0820866439871977
-0.6212723604123006,-1.15959634785473,1.022496868880838,-10.10996480851432,56.47029009491718,-5.587379353732824
-0.6328683238908479,-0.5948934469055581,0.9213972207956949,-10.165838602051648,57.53668066475975,-9.110116488644222
-0.6388172583599034,-0.01952664025796058,0.8197388347751784,-10.25693976693809,58.88518162224664,-13.759279814791899
-0.639012524762483,0.5693251759645058,0.7171694371057975,-10.39453256508601,60.725285095350266,-19.690488138625437
-0.633319273002838,1.1765780269180084,0.6132241114549374,-10.591437446472264,63.285712983386006,-27.1150418930392
-0.6215534927336579,1.8094351567518685,0.5073097369902148,-10.862587865402656,66.79640111069725,-36.288611312728925
-0.6034591411661392,2.4773991678588407,0.3986838583361882,-11.225473978529944,71.42427543961212,-47.43785955586983
-0.5786851494875508,3.191641922254962,0.28642911855088876,-11.699852574088643,77.07963864543527,-60.51273384296118
-0.5467687302650012,3.9624383087093147,0.16943059281000233,-12.304979912518256,82.89058611342944,-74.48539293929113
-0.507144347177908,4.791344169843609,0.046380793684819774,-13.049833841911168,85.94512375184237,-85.63411851988705
-0.45923090547947193,5.650795407362033,-0.08411754473429191,-13.906175027110038,79.04732108743329,-84.42646733565584
-0.4027229514058516,6.441268618236365,-0.2231792950053923,-14.750439700466597,50.094921252623905,-54.529912284761956
-0.33831026522348795,6.942217830762604,-0.37068369201005824,-15.295738823314217,-6.168519177642117,11.275309194390472
-0.2688880869158619,6.880532638986183,-0.5236410802432004,-15.182985731370312,-65.04321209161952,79.77475661990329
-0.2000827605260001,6.230100518069987,-0.6754709375569036,-14.385238165171279,-92.65033645278594,106.26901337692118
-0.13778175534530024,5.303597153542127,-0.8193233192086163,-13.322548031402066,-91.95298272293192,96.29209243094665
-0.08474578380987896,4.384067326312808,-0.9525487995226369,-12.3596271070926,-81.87331379296907,75.58059098129554
-0.04090511054675088,3.565334188383117,-1.076145070593563,-11.603821197279643,-71.8421147842868,56.21954460338394
-0.005251768662919709,2.846913040540249,-1.1921832825663594,-11.041625751245803,-64.07686213753412,40.618239212025955
0.023217361742482782,2.206144419164908,-1.3025995400788175,-10.635443359125544,-58.535376358443365,28.368363985203843
0.04527880593413186,1.6207906555804745,-1.408953973670073,-10.351759719273506,-54.743828943723486,18.647765215547377
0.061486712489936604,1.0733523661432396,-1.512471570862808,-10.165282067118032,-52.25138422300546,10.770199227633933
0.072220236151369,0.550838523913185,-1.6141243915339882,-10.057580074841692,-50.70253667596641,4.246638414126846
0.07772862139050084,0.043813157153520965,-1.7147001922824052,-10.015113690700423,-49.82309108290882,-1.2516581670233449
0.07816675296203605,-0.4544177536755672,-1.8148513291894095,-10.027630272370656,-49.39437753044309,-5.936496339961629
0.07362257542528038,-0.948361528979998,-1.915127631913116,-10.086995235770273,-49.23192955539956,-9.936087467651484
0.0641389601354804,-1.4406808245339937,-2.015997584270819,-10.186356110446788,-49.170780588282625,-13.318899346309626
0.049732151890140464,-1.93238863041682,-2.117861145375287,-10.319545103909883,-49.05672965869464,-16.111302280321045
0.030408265585972264,-2.4229559270037666,-2.221056596414386,-10.480658126713093,-48.742741627379786,-18.311910619334483
0.006178706315934597,-2.9103833432775645,-2.3258631776815166,-10.663777232906439,-48.08982870519676,-19.90456510999212
-0.022925127116841047,-3.391281630329532,-2.432500950010581,-10.86282288400636,-46.97172705042795,-20.87086715226143
-0.056837943420136365,-3.8609989008338115,-2.5411291788506447,-11.071531555528974,-45.28232238387271,-21.202118891399547
-0.09544793242847448,-4.313822124672539,-2.6518444944059345,-11.28355274444297,-42.944180343282326,-20.909521236196074
-0.13858615367519986,-4.743263928105362,-2.7646800218503644,-11.49264795680493,-39.91594950170837,-20.0307582093317
-0.18601879295625348,-5.1424234231224455,-2.879606501418414,-11.692955538898246,-36.1961942405332,-18.630983853006295
-0.23744302718747795,-5.504385365527778,-2.9965360568073964,-11.87926537742831,-31.821731329570103,-16.797004997588225
-0.29248688084275576,-5.822602678823479,-3.1153287105816796,-12.04723542740419,-26.859906052698957,-14.625104283201795
-0.35071290763099056,-6.091201739350469,-3.2358010648557216,-12.19348647023621,-21.396158116709472,-12.20501020536349
-0.4116249250244952,-6.305163320517563,-3.3577359295580838,-12.315536572289844,-15.52001739172789,-9.604187081816976
-0.47467655822967086,-6.460363494434842,-3.480891295280982,-12.411578443108013,-9.313569071301087,-6.857116413850062
-0.5392801931740193,-6.553499185147852,-3.6050070797120624,-12.480149607246513,-2.8459908218216605,-3.9632687758641736
-0.6048151850254978,-6.581959093366069,-3.7298085757845274,-12.519782295005156,3.8239046239714996,-0.8953400736916867
-0.6706347759591584,-6.543720047126354,-3.855006398734579,-12.528735695742073,10.637542944141058,2.383257970319888
-0.736071976430422,-6.437344617684944,-3.9802937556919997,-12.504903116038873,17.52167193791813,5.895049016000455
-0.8004454226072715,-6.262127898305763,-4.105342786852389,-12.445952625878869,24.37328794131192,9.62446697925732
-0.863066701590329,-6.018395018892644,-4.229802313111177,-12.349707956086295,31.04990596992406,13.49925877574204
-0.9232506517792555,-5.7078959591934035,-4.3532993926720405,-12.214715368328875,37.37015273358112,17.383113799638046
-0.9803296113711895,-5.3341944318575925,-4.475446546355329,-12.040884230332495,43.1274236315528,21.08333950168692
-1.0336715556897653,-4.902920195542064,-4.595855388658654,-11.830050835315625,48.11554005109495,24.37365267074926
-1.082700757645186,-4.421764795031114,-4.7141558970118105,-11.586314308608133,52.16100450648625,27.02745201413295
-1.126918405595497,-3.900154749966252,-4.830019040097892,-11.316039788466803,55.15339343671413,28.85307622464434
-1.1659199530951596,-3.3486208155991104,-4.94317943798256,-11.02750902622036,57.065356916703216,29.72148682869406
-1.1994061612511506,-2.777967246432078,-5.053454528244764,-10.730294157933418,57.95700093684801,29.57934244789682
-1.2271858337154713,-2.198397237063598,-5.160757469824098,-10.434500733454449,57.96468242492274,28.4454533080546
-1.2491698060861072,-1.6187504128143706,-5.265102477158643,-10.150046200373904,57.27899715439355,26.393728760840037
-1.2653573102142508,-1.045960441270435,-5.366602939162382,-9.886108912765504,56.11904031352533,23.528777995629497
-1.2758169146269551,-0.4847700381351817,-5.465464028290037,-9.65082113280921,54.709470075006365,19.960530988545287
-1.280664615008307,0.0623246626148819,-5.561972239618129,-9.451215822923757,53.26451595026772,15.78233148165483
-1.280041368382158,0.5949698221175591,-5.6564843978473665,-9.293392508107209,51.980326761875396,11.05429512085566
-1.2740916701609826,1.114773089736313,-5.749418322928438,-9.182849556898653,51.03501782169648,5.791472550867517
-1.2629439392636195,1.6251232679532779,-5.841246818497424,-9.124934831389977,50.594786444352565,-0.0449588219417958
-1.2466927065840867,2.1310711323968037,-5.932496166811324,-9.125384419609395,50.824254197884386,-6.555571102373586
-1.2253819952601186,2.6393136743756473,-6.023750011007419,-9.19094013063313,51.899128472304646,-13.91102708061598
-1.1989888585163622,3.158304959098694,-6.11565941231375,-9.33005040143929,54.0183018554341,-22.359921255478667
-1.1674058089253752,3.698487977653035,-6.208959916328143,-9.553649613994077,57.40843228641959,-32.228626926708664
-1.1304209291488447,4.272572300517231,-6.304496412468084,-9.875935883261164,62.30128751797446,-43.8874501118623
-1.0876952061436724,4.895585175696976,-6.403255771300696,-10.314810384379786,68.82785366109171,-57.606830323562065
-1.0387393543867027,5.583863712307893,-6.5064038751444935,-10.890878687615407,76.67696403425971,-73.09309731733433
-0.9829007172636238,6.3506333526504894,-6.6153126620206475,-11.62180966078875,84.1475351902402,-88.18606795027053
-0.9193943837371189,7.192108704552892,-6.731530758628535,-12.503670340291457,85.96549158879577,-95.82972137934145
-0.84747329669159,8.05176362044085,-6.85656746203145,-13.461967554084872,70.36470501688088,-79.96975056115409
-0.7669556604871814,8.75541067060966,-6.9911871375722985,-14.261665059696412,23.64996032389956,-21.752385078432845
-0.6794015537810848,8.991910273848655,-7.133803788169263,-14.47918891048074,-42.990268051714295,63.50432909462254
-0.5894824510425982,8.562007593331511,-7.27859567727407,-13.844145619534515,-85.5884570696996,115.8024820310243
-0.5038623751092831,7.706123022634515,-7.417037133469415,-12.686120799224273,-89.67185107943712,116.32262060423317
-0.42680114488293797,6.809404511840144,-7.543898341461658,-11.522894593181942,-77.21515816961713,95.55850838973593
-0.3587070997645365,6.037252930143973,-7.659127287393477,-10.567309509284582,-63.508829880774776,74.00754168472257
-0.2983345704630968,5.402164631336225,-7.764800382486323,-9.827234092437356,-52.526162967838566,56.62959984050515
-0.24431292414973454,4.87690300165784,-7.8630727234106965,-9.260938094032305,-44.37337364960815,43.270426439311024
-0.19554389413315615,4.433169265161758,-7.95568210435102,-8.828233829639196,-38.435529734610164,32.91750829007158
-0.15121220148153858,4.048813967815656,-8.043964442647411,-8.49905874673848,-34.135288146842925,24.681134523861257
-0.11072406180338201,3.7074610863472266,-8.128955030114795,-8.252247401499869,-31.043905867585426,17.916067673175228
-0.07364945093990974,3.3970220276713725,-8.211477504129794,-8.073086724768116,-28.85720330365762,12.176938303387834
-0.039679230663196015,3.108449994634796,-8.292208371377475,-7.951317341734238,-27.355512809047816,7.162996490006182
-0.008594730716848051,2.834894866544318,-8.371721544794818,-7.879687376834176,-26.369826209433423,2.6794149235613465
0.019754217948595127,2.571196604449984,-8.45051841856316,-7.852893227598562,-25.75510345446671,-1.384564566617768
0.04546618399309497,2.313645569905317,-8.529047350839145,-7.866738873264739,-25.36828956213294,-5.064572837563383
0.06860263969214814,2.0599626742839874,-8.607714739571792,-7.917384601640373,-25.049384144902266,-8.32134090629152
0.08920226643498802,1.8094688328349648,-8.686888585588196,-8.000598010703289,-24.606081747285824,-11.037240594585542
0.10729695476333767,1.5634080153621066,-8.76689456569523,-8.110970416649144,-23.805700801836064,-13.016700821128705
0.12293103491695874,1.325351007343746,-8.848004269861722,-8.241137424860431,-22.38197945513812,-14.001957320009316
0.1361845449903962,1.1015312127923649,-8.930415644110326,-8.381156998060524,-20.06693420156227,-13.718250859917507
0.14719985711831984,0.9008618707767422,-9.014227214090932,-8.518339506659698,-16.654822132327524,-11.958033666126612
0.15620847582608727,0.734313649453467,-9.099410609157529,-8.637919843320965,-12.090615028147326,-8.694625959963833
0.16355161232062193,0.6134074991719938,-9.185789807590739,-8.724866102920604,-6.549639085817158,-4.1828018337955815
0.16968568731234188,0.5479111083138222,-9.273038468619944,-8.76669412125856,-0.4548540845763591,1.0211789606799502
0.1751647983954801,0.5433625674680586,-9.36070540983253,-8.75648233165176,5.6070649821350935,6.167250480351892
0.1805984240701607,0.5994332172894095,-9.448270233149048,-8.69480982684824,11.051095712203576,10.518708817805376
0.1865927562430548,0.7099441744114452,-9.53521833141753,-8.589622738670187,15.460424803923315,13.555762306656183
0.19369219798716925,0.8645484224506783,-9.621114558804232,-8.454065115603624,18.671509822543616,15.073293974399283
0.20233768221167603,1.0512635206761145,-9.705655209960268,-8.303332175859632,20.754465789068778,15.148165903385724
0.21285031741843718,1.2588081785668024,-9.788688531718865,-8.151850516825775,21.928138957978046,14.028670077636962
0.22543839920410522,1.4780895681465829,-9.870207036887123,-8.011563816049405,22.466700489021928,12.017311752241888
0.24021929488557103,1.7027565730368022,-9.950322675047618,-7.891390698526986,22.633242887414657,9.389210732045646
0.25724686061593904,1.9290890019109488,-10.029236582032887,-7.797498591206529,22.647636792377874,6.353009596155509
0.27653775063504854,2.1555653698347275,-10.107211567944953,-7.733968495244974,22.680035143688237,3.0422606602351334
0.2980934043333958,2.3823657212716096,-10.184551252897403,-7.703545888642623,22.85832453106695,-0.4777772730820267
0.32191706154611194,2.610948966582279,-10.26158671178383,-7.708323661373443,23.280864228961583,-4.1988559777920464
0.3480265512119347,2.843757608871895,-10.338669948397564,-7.750312221151364,24.02984731771877,-8.159905092114125
0.37646412730065365,3.084056082049083,-10.416173070609078,-7.831911272072505,25.183492823049423,-12.441107518661854
