th1 (rad),w1 (rad/s),th2 (rad),w2 (rad/s)
4.458602925074018,0.8723528658896327,5.753568111650175,-0.807253199757466
4.467326453732914,0.968157140718703,5.745495579652601,-0.791157618327003
4.477008025140101,1.0642803381060157,5.737584003469331,-0.7776699713721171
4.487650828521161,1.160840819692951,5.729807303755609,-0.7670777384282541
4.499259236718091,1.2579662513504992,5.722136526371327,-0.7596746067946601
4.511838899231596,1.3557944787609728,5.71453978030338,-0.7557617207826595
4.525396844019205,1.45447457627569,5.706982163095554,-0.7556490105574659
4.539941589781963,1.554168079191638,5.699425672989979,-0.7596566007660754
4.555483270573879,1.6550504052499773,5.691829106982318,-0.7681162926107382
4.572033774626378,1.757312463887842,5.684147944056211,-0.7813731018276948
4.589606899265257,1.8611624399744773,5.676334213037935,-0.7997868167858178
4.608218523665002,1.966827720036732,5.6683363448700765,-0.8237335120892215
4.627886800865369,2.074556899737916,5.660099009749184,-0.8536069083894735
4.648632369862748,2.184621766255333,5.65156294066529,-0.8898194007808019
4.6704785875253005,2.2973190802221657,5.6426647466574815,-0.9328024746243958
4.693451778327522,2.4129718772426867,5.633336721911237,-0.9830060719528982
4.717581497099949,2.5319298513231447,5.623506661191708,-1.040896239000053
4.74290079561318,2.6545681468158144,5.613097698801708,-1.106950040314035
4.769446477081338,2.7812835362002915,5.602028198398568,-1.1816462173645939
4.797259312443341,2.9124864499071026,5.590211736224922,-1.2654493319156783
4.826384176942412,3.048586589675321,5.577557242905765,-1.35878408112254
4.856870042839165,3.1899688291630945,5.56396940209454,-1.461995007696165
4.888769731130796,3.336954729248373,5.549349452017578,-1.5752848829727348
4.92213927842328,3.4897432869251426,5.533596603187851,-1.69862264849901
4.957036711292531,3.6483227145616772,5.516610376702861,-1.8316092926167487
4.993519938438148,3.8123437942604617,5.498294283776693,-1.9732884124796164
5.031643376380752,3.980946280541296,5.478561399651897,-2.121889795837961
5.071452839186165,4.152536122552242,5.4573425016935175,-2.2745037270752917
5.112978200411687,4.324528209998964,5.434597464422764,-2.4267083974605432
5.156223482511677,4.493103359297482,5.410330380448159,-2.572221934924749
5.201154516104651,4.653081893796166,5.384608161098912,-2.7027276853465003
5.247685335042613,4.798075430450996,5.357580884245447,-2.8081063190572833
5.295666089347123,4.921095357644056,5.329499821054874,-2.87733240767154
5.344877042923564,5.015690281766241,5.300726496978159,-2.900140938404441
5.395033945741226,5.0774075732052415,5.271725087594115,-2.869171959018252
5.445808021473279,5.105039356352803,5.243033368003933,-2.78181978520418
5.496858415036806,5.10102357796515,5.2152151701518905,-2.640878570681083
5.547868650816458,5.070743338302606,5.18880638444508,-2.4536016185228857
5.598576084199484,5.021078630996669,5.164270368259851,-2.229664522564004
5.648786870509451,4.958899703617345,5.141973723034211,-1.97901068851104
5.698375867545624,4.890030100634283,5.122183616149101,-1.7103410978632994
5.747276168551967,4.818811780900357,5.105080205170468,-1.4304525129596553
5.795464286360971,4.748120036209758,5.090775680040871,-1.1442202091608176
5.842945486723069,4.679604596126777,5.079333477949263,-0.8549131305564431
5.889741532684337,4.613989110505953,5.070784346643699,-0.5646031331529107
5.935881423789397,4.551341635943272,5.06513831531217,-0.2745414563970083
5.9813948401488295,4.491286491328333,5.0623929007482005,0.014543108033176044
6.026307705062113,4.433157611140232,5.062538331828533,0.3022272515614485
6.0706392811735155,4.376104592832919,5.065560604344147,0.5882439031683773
6.114400327101845,4.31916433686746,5.07144304337583,0.8723841585452159
6.15759197047052,4.261309271825897,5.080166884961282,1.154436025552117
6.200205063188779,4.201480425617648,5.091711245216803,1.434149096547007
6.242219867444955,4.138611127882523,5.106052736182273,1.7112174354528698
6.283605978723781,4.0716451940984,5.1231649105368025,1.98527541003617
6.324322430664765,3.999552026138746,5.143017664637164,2.2559029150694667
6.364317950926152,3.9213400572982424,5.165576693787859,2.5226375647629355
6.403531351499134,3.836069260765163,5.190803069435488,2.7849921419494437
6.441892044106786,3.7428629420822666,5.218652990854983,3.0424760106170106
6.479320673527608,3.640918687950026,5.249077750961153,3.2946194297345928
6.5157298604071086,3.5295181071816333,5.282023945258499,3.5409998252052026
6.551025041478925,3.4080348516149956,5.317433943510551,3.781269137756208
6.585105389995075,3.275940332277009,5.355246634888113,4.01518140647594
6.617864793317845,3.1328065419526827,5.395398448952872,4.2426197968753465
6.649192858737372,2.978305455527339,5.437824646921626,4.4636223542130296
6.678975913292645,2.81220460169048,5.482460870463756,4.678405862013937
6.70709795930955,2.63435858312961,5.529244929083895,4.887387304947872
6.733441545140846,2.4446965700400063,5.578118802133374,5.0912025526291576
6.757888510841246,2.2432061143788222,5.6290308276596654,5.290721955074644
6.780320571985034,2.0299140565271996,5.681938047210412,5.487062501962685
6.800619712550306,1.80486587828317,5.736808672230039,5.6815959334186426
6.818668371333138,1.5681057048562181,5.793624631564225,5.8759515163711455
6.8343494283817,1.3196604703219705,5.852384146727936,6.072010817503322
6.84754603308492,1.0595338768558236,5.9131042549029695,6.271889218107487
6.8581413718534785,0.7877192670245479,5.975823147084045,6.477894322168651
6.866018564523724,0.5042462951644396,6.040602090305731,6.6924435277135474
6.871061027475369,0.20928565504580826,6.107526525582866,6.917909962939953
6.873153884025827,-0.09664927465123246,6.176705625212266,7.156345323069984
6.872187391279315,-0.4123441388060883,6.2482690784429655,7.408998112902469
6.868063949891254,-0.7352845903597209,6.3223590595719905,7.675509572626327
6.860711103987657,-1.0607200967063644,6.399114155298253,7.952647368713603
6.850103903020593,-1.3803413450902093,6.4786406289853895,8.232493299798577
6.836300489569691,-1.6807368549481332,6.560965561983375,8.500284099808525
6.819493121020209,-1.9423359099468953,6.6459684029814605,8.732836062675348
6.80006976192074,-2.140411791516257,6.733296763608214,8.89967301350146
6.778665644005578,-2.250137694266682,6.822293493743229,8.96957477638367
6.756164267062911,-2.255758540942962,6.911989241507065,8.922671699649428
6.733606681653482,-2.1590716391170792,7.001215958503559,8.76161781841539
6.712015965262311,-1.9798722651770342,7.088832136687714,8.511995938458618
6.692217242610541,-1.7471402828658171,7.1739520960723,8.210483188011837
6.674745839781883,-1.4882704595181613,7.256056927952419,7.8907316375328955
6.6598631351867015,-1.223228699361825,7.334964244327748,7.576064446338663
6.647630848193083,-0.9640957446796513,7.410724888791134,7.279328387665237
6.637989890746287,-0.7170914794922619,7.483518172667787,7.005864704268828
6.630818975951364,-0.4848137413535075,7.553576819710475,6.7565868401307005
6.625970838537829,-0.26787694209652024,7.6211426881117825,6.530153463276868
6.6232920691168635,-0.06592016330067099,7.6864442227445515,6.324259086029596
6.622632867483857,0.12182970373306479,7.749686813604847,6.136324328753561
6.623851164521187,0.2962644295878267,7.811050056892383,5.963834053769697
6.626813808817065,0.45825225432756644,7.87068839743008,5.80448503546418
6.631396331360341,0.6085767914185685,7.928733247784722,5.6562363655935455
6.637482099274526,0.7479177714222225,7.985295611440657,5.517313032109583
6.644961276988748,0.876852392724135,8.040468741761753,5.3861888774317555
6.653729800915989,0.9958660378441981,8.09433063053607,5.261562061329015
6.663688461294431,1.1053665184469876,8.14694625114936,5.142329293091124
6.6747421264789,1.2056988952908334,8.198369544080272,5.02756158106216
6.686799115431809,1.2971594418118297,8.248645159890893,4.916482493251043
6.699770709849927,1.3800081154693706,8.297809984823404,4.808449084876126
6.713570791004621,1.4544793106784724,8.345894475672166,4.702935281166865
6.728115584111405,1.520790873803133,8.392923828483834,4.599517372796997
6.743323492849437,1.5791514616361997,8.438919002211804,4.497861265118026
6.759115007465799,1.6297663715945065,8.483897614862984,4.397711157779539
6.775412671181744,1.6728419914865165,8.52787472644078,4.29887938602847
6.792141091096609,1.7085890229752896,8.570863520301065,4.20123721277198
6.809226981326362,1.737224632580167,8.612875892428786,4.104706413624996
6.826599227652164,1.7589736804071334,8.653922956565037,4.009251542333064
6.844188964456235,1.7740691711143513,8.694015471988367,3.9148728001747704
6.861929656167378,1.7827520644056505,8.733164199990114,3.821599460424051
6.8797571768114345,1.78527057377542,8.771380194594354,3.7294838185242414
6.8976098825491885,1.781879072411706,8.808675032779597,3.6385956514154807
6.915428673273306,1.7728367142554384,8.845060989293751,3.54901717669244
6.9331570404158605,1.7584058664468991,8.880551161060675,3.4608385051710964
6.9507410990803296,1.738850437069885,8.915159546112386,3.374153580155308
6.968129603451028,1.7144341695750824,8.94890108191394,3.2890565942393
6.985273945146779,1.6854189628807017,8.981791647856333,3.2056388707367627
7.002128134775586,1.652063264242004,9.0138480365637,3.12398619250836
7.018648767418006,1.6146205708380956,9.045087898488784,3.0441765566252323
7.034794973126387,1.5733380658699245,9.075529664055036,2.9662783293646617
7.0505283537850865,1.5284554059563653,9.105192447348683,2.8903487727586703
7.06581290784465,1.4802036688473699,9.13409593507627,2.816432911465078
7.080614944533124,1.4288044639747794,9.16226026419092,2.7445627071679737
7.094902989172872,1.3744692031107026,9.1897058912626,2.674756507033369
7.108647681203979,1.3173985243370026,9.216453456332934,2.6070187328873407
7.121821666447349,1.2577818595538788,9.242523643661807,2.541339778656323
7.134399485042888,1.1957971337577833,9.26793704144837,2.477696085102473
7.146357456380466,1.1316105831760497,9.292714002299395,2.416050362885632
7.157673562212226,1.0653766789326657,9.31687450592825,2.3563519373752575
7.168327329001553,0.9972381431158253,9.340438025302003,2.298537191318777
7.178299710432711,0.9273260448112012,9.363423397215191,2.2425300843594456
7.187572970880823,0.8557599647549976,9.385848698058785,2.1882427314158006
7.196130570528373,0.7826482186609539,9.407731125372942,2.1355760250324125
7.2039570527149825,0.7080881309129029,9.429086885623267,2.0844202899510416
7.2110379340241115,0.6321663521304703,9.449931088522778,2.034655961311396
7.217359597545416,0.5549592160643495,9.470277648135891,1.9861542810643265
7.222909189706059,0.47653313332523894,9.490139190946534,1.9387780103718606
7.227674521039312,0.39694502157280265,9.509526971050253,1.892382158991335
7.23164397125504,0.3162427739713134,9.528450792640166,1.8468147359141174
7.2348063989947535,0.2344657699454981,9.546918939999307,1.8019175288745706
7.237151056694208,0.15164543453412754,9.564938115288053,1.7575269237817388
7.23866751103955,0.06780585492940963,9.58251338452587,1.7134747786681175
7.239345569588844,-0.017035534908697497,9.59964813231255,1.669589370398112
7.239175214239757,-0.10286718838834852,9.616344026016531,1.62569643611594
7.2381465423558735,-0.1896825837674075,9.632600990377691,1.5816203351945455
7.236249716518199,-0.2774792474652271,9.648417193729637,1.5371853611930888
7.233474924043547,-0.3662576437865,9.663789047341568,1.4922172369131597
7.229812347605682,-0.4560199100703296,9.6787112197107,1.446544828876047
7.225252148504978,-0.546768415210477,9.69317666799946,1.400002120165998
7.219784464352873,-0.6385041191440323,9.70717668920112,1.3524304822530417
7.213399423161433,-0.7312247115467317,9.72070099402365,1.3036812866831184
7.2060871760459655,-0.8249225099311923,9.733737806890481,1.2536188958591914
7.197837950946654,-0.919582100999738,9.746273995849073,1.2021240678879677
7.188642129936657,-1.0151777148784507,9.758295236527953,1.1490978028948373
7.178490352787872,-1.1116703301960098,9.769786214556902,1.0944656465137423
7.167373649485912,-1.209004519297205,9.780730871022039,1.0381824496254657
7.15528360429294,-1.3071050575576502,9.791112695518294,0.9802375610991216
7.142212553717363,-1.405873339018807,9.800915071129285,0.9206604017135398
7.128153820327175,-1.5051836623960435,9.810121675146421,0.8595263323388408
7.113101983703215,-1.6048794766149934,9.818716938469809,0.7969626880674846
7.097053188937065,-1.704769702675102,9.826686565350483,0.7331548031864531
7.080005491910314,-1.804625277595473,9.834018113382347,0.6683518014041667
7.061959239134359,-1.9041760946874766,9.840701631396389,0.6028718742845596
7.042917478187484,-2.003108540099287,9.846730350139234,0.5371067221165577
7.022886392786491,-2.10106384571716,9.8521014173604,0.4715247901288424
7.001875754329319,-2.1976374900554054,9.856816665261688,0.4066729044274371
6.979899379428765,-2.292379878724147,9.860883394305962,0.3431759019591986
6.956975580641524,-2.384798521840974,9.864315153325553,0.28173386256286537
6.933127595423114,-2.474361895571048,9.867132491951182,0.22311659313871543
6.9083839764674035,-2.56050512823471,9.86936365788257,0.16815508681682162
6.882778925185057,-2.642637588909216,9.871045208750738,0.1177297841023717
6.8563525492959645,-2.7201523803905334,9.872222506591761,0.07275559606544624
6.8291510254920595,-2.792437652177603,9.872950062552416,0.03416380686198167
6.8012266489702835,-2.8588895569229784,9.873291700621035,0.002881147166894922
6.772637753401054,-2.9189265798178115,9.873320512092704,-0.02019348709038316
6.743448487602876,-2.972004878485936,9.8731185772218,-0.03421401425979567
6.713728438818017,-3.0176341842775565,9.872776437079203,-0.0384130164880199
6.683552096975242,-3.0553937369160424,9.872392306914323,-0.03212747859190688
6.652998159606081,-3.0849476558228335,9.872071032128403,-0.014823312415492132
6.622148683047853,-3.1060590966937625,9.871922799004247,0.013882520823590747
6.591088092080915,-3.118602506649996,9.872061624212483,0.054203509512821574
6.5599020670144155,-3.1225732838675344,9.872603659307611,0.10616989734101082
6.52867633417574,-3.1180941787712464,9.873665358281022,0.16962086684210656
6.497495392388028,-3.1054178553184335,9.875361566949442,0.2442034647966301
6.466441213834844,-3.084925172233456,9.877803601597408,0.3293788273647326
6.435591962112509,-3.057118949099673,9.881097389871055,0.42443586291598684
6.405020772621513,-3.0226132451660934,9.885341748500215,0.528512077826067
6.374794640169852,-2.9821184817120727,9.890626869278476,0.6406207235659925
6.344973455352731,-2.936423052028195,9.897033076514136,0.759682955961605
6.315609224832449,-2.8863723482399215,9.904629906073753,0.8845632913664057
6.286745501350049,-2.8328463511350055,9.913475538987417,1.014106378494633
6.258417037838699,-2.776737044036926,9.923616602772363,1.1471730221195064
6.23064966739833,-2.71892690494363,9.935088332993558,1.2826735130526254
6.203460398348894,-2.660269602121853,9.947915068124084,1.4195966238618374
6.176857702327675,-2.6015737863165915,9.962111034362703,1.5570330784781525
6.150841964464509,-2.543590572510672,9.977681365147484,1.6941928325331705
6.125406058739403,-2.4870049786359067,9.994623293472817,1.8304160389212207
6.100536008953044,-2.4324312800350687,10.012927453862028,1.9651780549813265
6.076211696152693,-2.3804119808510977,10.032579234411841,2.0980892262072715
6.052407576344182,-2.331419918074724,10.053560126673913,2.2288904315264464
6.029093377163434,-2.2858629078958925,10.075849030989177,2.357445494549561
6.006234748084475,-2.244090312298851,10.099423485934674,2.483731569536665
5.983793844961487,-2.2064009331012877,10.12426080163004,2.60782852722468
5.961729835630474,-2.173051713295064,10.150339086902287,2.729908225432464
5.939999318497524,-2.1442668236468974,10.177638169156612,2.8502243822600155
5.9185566502610545,-2.120246820381045,10.206140412979213,2.969103600169565
5.897354182057244,-2.101177665371074,10.235831448980909,3.0869379347023576
5.876342405403533,-2.0872394955359233,10.266700828327933,3.204179272379838
5.855470010448174,-2.078615108429181,10.298742621051732,3.3213356826231153
5.834683859363882,-2.075498194162996,10.331955977877962,3.438969837578828
5.813928877422252,-2.0781013889163145,10.36634567625375,3.557699547116572
5.793147863533089,-2.086664251353132,10.401922671724916,3.678200426435027
5.772281221019558,-2.101461267695323,10.438704675989266,3.8012106898830096
5.751266608342605,-2.1228099677004004,10.476716782888095,3.9275380313127863
5.730038508665601,-2.15107916959284,10.515992163201224,4.058068485266284
5.708527716969672,-2.186697243121153,10.556572848053886,4.193777027534894
5.686660744538461,-2.2301600434918325,10.598510618329234,4.3357394068867485
5.664359144103543,-2.282037750094159,10.6418680123981,4.485144198435939
5.641538766602601,-2.342979113634472,10.68671945438246,4.6433031564154215
5.618108975466256,-2.413710353360769,10.733152485946615,4.81165631815068
5.593971871932648,-2.4950237814689435,10.781269049128122,4.991765460744596
5.569021634117958,-2.5877475525519227,10.831186703735568,5.185284588691215
5.5431441585924395,-2.692681772088919,10.883039549622481,5.393887778173431
5.516217340871551,-2.8104761309707067,10.936978427404215,5.619120917078492
5.488112579561844,-2.941408548602233,10.993169636575,5.862122185386815
5.458698494075821,-3.085002067463847,11.051790858428868,6.123125009151126
5.427848473401183,-3.239392067947083,11.11302210852038,6.400621312153045
5.395454552721712,-3.400346307477938,11.17702832164191,6.690047234067014
5.361451089646932,-3.559902074268087,11.24392879398258,6.981934537434388
5.3258520689042514,-3.7048401602208405,11.313748139356923,7.259817758669639
5.288803667302043,-3.815827578772404,11.38634631694362,7.49902710426489
5.250645391514318,-3.86895434087744,11.461336587986269,7.6687289106381495
5.211955848105544,-3.8415522998527463,11.53802387709265,7.739801832424732
5.173540325107016,-3.7215790415013577,11.615421895416898,7.697544155007173
5.136324534692003,-3.514735805924251,11.69239733696697,7.551181315439165
5.101177176632761,-3.242495547442876,11.767909150121362,7.330875616407712
5.068752221158332,-2.932092745182959,11.84121790628544,7.073877639739084
5.039431293706502,-2.6067888536331267,11.911956682682831,6.811333804392438
5.013363405170171,-2.2818776118201045,11.980070020726755,6.563115252702446
4.99054462905197,-1.965418290055188,12.045701173253779,6.339085692109791
4.970890446151419,-1.6605933972197184,12.109092030174876,6.142473138690815
4.954284512179221,-1.367835045909558,12.170516761561785,5.972822943960669
4.940606161720126,-1.0862400270361527,12.230244991001392,5.827920766922067
4.929743761449765,-0.8143826953065161,12.288524198670613,5.704868919941821
4.921599934496699,-0.5507408482127099,12.34557288787003,5.600628495274484
4.916092526014572,-0.293901733011738,12.401579172822775,5.512263506981466
4.913153508684455,-0.04265156772125017,12.456701807892589,5.437030987949289
4.912726993007243,0.20399357622843653,12.511072117772082,5.372396668450368
4.914766928769527,0.44678492022254757,12.564796084456585,5.316018018083744
4.919234777971753,0.6862506236870677,12.617956264637423,5.265715794110867
4.926097284208624,0.9227104237116452,12.670613422578532,5.219444427728054
4.935324388445741,1.1562919306819925,12.722807866855812,5.175266056537317
4.946887307752561,1.386947351881034,12.774560527421185,5.131330242141111
4.960756781271371,1.6144704405535748,12.825873829842596,5.085860042629959
4.9769014856769065,1.8385139200251064,12.876732430268895,5.037144433662688
4.995286624877157,2.0586077780320866,12.927103874605521,4.983536725271454
5.015872702657478,2.2741788052887735,12.976939241858236,4.923458421461615
5.038614490710366,2.484571639601281,13.026173826072853,4.855407828178389
5.063460207106378,2.6890714155548228,13.074727904354637,4.777972594651196
5.090350921261926,2.8869279375014605,13.122507630301149,4.689845262417801
5.119220200636941,3.077381110391501,13.169406082925327,4.589840797790609
5.149994011740856,3.259687194966177,13.215304490903234,4.47691500516371
5.1825908836905175,3.4331453138106145,13.260073640954872,4.350182669320522
