th1 (rad),w1 (rad/s),th2 (rad),w2 (rad/s)
1.9596510173652975,2.252500732002889,4.149735028289176,1.8047603102575074
1.9821760246853264,2.1739047051159934,4.167782631391751,1.800716160999274
2.003915071736486,2.0976868146819454,4.185789793001744,1.8019711228871993
2.0248919398833056,2.0238455345795847,4.203809504230616,1.808288015322674
2.0451303952291013,1.9523808311817696,4.2218923843838425,1.8194387660197868
2.064654203540919,1.8832950089392588,4.24008677204404,1.835205112406797
2.083487153630312,1.8165933876311646,4.258438823168108,1.8553791598274154
2.1016530875066235,1.7522848311714345,4.276992614766382,1.8797638201804143
2.1191759358183377,1.6903821462745645,4.295790252968186,1.9081731509563413
2.1360797572810832,1.630902367492273,4.314871984477749,1.9404326109567875
2.152388780956006,1.573866943183431,4.334276310587317,1.9763792453851003
2.16812745038784,1.519301834899168,4.354040103041168,2.0158618095162795
2.1833204687368317,1.4672375404631732,4.374198721136331,2.058740836799316
2.1979928441414636,1.4177090486981245,4.3947861295043245,2.104888654005382
2.2121699346284447,1.3707557312742704,4.415835016044379,2.1541893428779395
2.2258774919411874,1.3264211745056864,4.437376909473158,2.2065386446166526
2.2391417036862444,1.2847529510541946,4.459442295919324,2.2618438003717247
2.2519892331967863,1.2458023283725466,4.482060733923041,2.3200233176615237
2.2644472564805116,1.2096239072722736,4.505260967099656,2.3810066491657493
2.276543495553234,1.1762751801769802,4.529071033591314,2.444733766591245
2.288306247355004,1.145815994354602,4.553518371257226,2.5111546081538627
2.29976440729855,1.1183079006476178,4.578629917338765,2.5802283735608205
2.310947486305026,1.0938133628781816,4.604432201074373,2.6519226351100453
2.321885619933808,1.0723947971473993,4.630951427425473,2.7262122275539307
2.3326095679052816,1.0541134036494746,4.658213549701013,2.803077872636852
2.3431507019417763,1.0390277463970017,4.686244328427382,2.882504486683517
2.3535409794057465,1.0271920284815843,4.715069373294217,2.9644791113329725
2.3638128996905623,1.0186540023492754,4.744714164407546,3.0489883986317396
2.373999439714055,1.013452446370189,4.775204048393864,3.136015572527956
2.384133964177757,1.01161413124575,4.806564204119143,3.225536779882543
2.3942501054902143,1.0131501933257883,4.838819571917968,3.317516736286252
2.4043816074234723,1.0180518278797746,4.87199473928083,3.4119035665272395
2.41456212570227,1.0262852154552775,4.906113774946102,3.508622738345795
2.4248249778568227,1.0377856009597988,4.94120000232956,3.6075699937207646
2.4352028338664207,1.052450461070738,4.977275702266768,3.708603197824549
2.445727338477128,1.070131724919288,5.014361734245013,3.811533056456764
2.4564286557263206,1.0906270604984596,5.052477064809581,3.916112703808356
2.467334926331305,1.1136703104679297,5.0916381918476645,4.022026240400901
2.4784716294359845,1.1389212619101603,5.131858454251674,4.128876413185499
2.4898608420550863,1.1659550706795134,5.173147218383529,4.236171783039641
2.5015203927618814,1.1942518360707999,5.215508936213926,4.343313924497738
2.5134629111225895,1.223187035544379,5.258942075458903,4.449585449586388
2.525694781478033,1.252023775292099,5.303437929954767,4.554139935648367
2.538215019230954,1.2799080731050592,5.348979329311251,4.655995147644512
2.5510140999620043,1.3058686334235734,5.3955392807876965,4.754031243504791
2.56407278629624,1.3288227510976536,5.443079593222745,4.846995880779852
2.5773610138072165,1.3475900226288717,5.491549552030543,4.9335182263365605
2.5908369140335052,1.3609153704617718,5.5408847342939085,5.012133713205925
2.604446067738123,1.3675024154661977,5.5910060714259675,5.081320891802915
2.618121091892785,1.3660574049321095,5.641819280343997,5.1395508107085535
2.631781665942106,1.3553427104416351,5.693214788451082,5.18534801717758
2.6453350930465223,1.334237429584281,5.745068268622858,5.217360568861889
2.658677467342365,1.3018010436928324,5.797241874311477,5.234434600937322
2.6716954777792936,1.257334691518062,5.84958622032085,5.235687326215595
2.6842688246944744,1.2004337679063972,5.9019430935830055,5.220571265604969
2.6962731623735383,1.1310255735553847,5.954148806239055,5.188922396751778
2.7075834181090923,1.049386817276267,6.006038030206573,5.140986005464293
2.718077286281855,0.9561378642917867,6.057447890261216,5.077416301796213
2.7276386649247732,0.8522134234865523,6.108222053279178,4.9992489880556805
2.736160799159639,0.7388123502331085,6.158214543159735,4.907849357882628
2.74354892266197,0.6173318102594985,6.2072930367385615,4.804841485969827
2.749722240764565,0.4892927016282607,6.25534145159826,4.692026058256898
2.7546151677808477,0.3562637022089857,6.302261712180829,4.571295075053559
2.7581778048029375,0.2197906296688433,6.347974662931364,4.444551045927611
2.760375711099626,0.08133625239107711,6.39242017339064,4.313636681801623
2.761189073623537,-0.05776630643118244,6.4355565402086565,4.180278934348713
2.760611410559225,-0.1963454461638753,6.477359329552144,4.046049008317338
2.7586479560975863,-0.3334088298941263,6.517819819635317,3.9123380512140202
2.755313867798645,-0.46814878631910084,6.556943200147457,3.7803468218631986
2.750632379935454,-0.5999378495728089,6.594746668366089,3.651086813348535
2.744633001439726,-0.7283171241774967,6.631257536499574,3.525389997809246
2.737349830197951,-0.8529800223557706,6.666511436477666,3.403924446544477
2.728820029974393,-0.9737535645958848,6.7005506809431115,3.287213416926003
2.719082494328434,-1.0905789792866332,6.733422815112371,3.1756559600797836
2.7081767045355676,-1.2034928712697663,6.76517937471317,3.0695475929160136
2.69614177582287,-1.3126098080100117,6.795874850642329,2.9691000314580207
2.6830156777427696,-1.4181068239466437,6.8255658509569095,2.8744593657430593
2.6688346095033033,-1.5202100765324584,6.85431044461434,2.78572235813566
2.653632508737979,-1.6191836968703055,6.882167668195697,2.7029507692943593
2.637440671769276,-1.7153207525115426,6.90919717588864,2.626183769641031
2.6202874642441607,-1.808936166377733,6.93545901358505,2.555448592469419
2.6021981025803833,-1.9003614007592975,6.961013499509744,2.4907696413897917
2.5831944885727904,-1.9899407075245334,6.985921195923642,2.4321762917426173
2.5632950814975453,-2.0780287558817783,7.010242958841069,2.3797096328602714
2.5425147939387274,-2.1649894703574186,7.034040055169672,2.3334283932750557
2.520864899235153,-2.251195939117523,7.057374339102422,2.2934142797505377
2.498352939843978,-2.337031282961919,7.080308481899928,2.259776947167914
2.474982627014359,-2.4228904059812395,7.102906251371607,2.2326588021753744
2.4507537229545466,-2.5091825784356243,7.125232839393361,2.2122398301968382
2.4256618971701904,-2.59633482964698,7.147355237695329,2.1987426228080866
2.3996985488737206,-2.684796152225289,7.16934266392341,2.1924377692315957
2.3728505873514676,-2.775042536729783,7.191267041615726,2.193649758672075
2.3451001619841696,-2.8675828644118093,7.213203539202446,2.2027635137550647
2.3164243333400516,-2.962965678885139,7.235231174339997,2.220231629708302
2.2867946765512004,-3.0617868247675903,7.25743349063708,2.246582312707068
2.2561768083035245,-3.164697864177056,7.279899313764151,2.282427866414217
2.224529829661754,-3.2724150291211602,7.302723592428293,2.3284733220205656
2.1918056793705425,-3.385728186269596,7.326008325648499,2.3855243669255533
2.1579483975078464,-3.5055087912788925,7.349863569317755,2.4544929722930915
2.1228933095950575,-3.632714944609094,7.374408499040686,2.5363978381549717
2.0865661601489665,-3.7683901868971597,7.3997724774222355,2.6323546211997755
2.048882258279995,-3.9136502016936543,7.4260960236342335,2.743547335931958
2.0097457562630585,-4.06964753498794,7.453531496993553,2.871166490790915
1.9690492809131792,-4.237497968337431,7.482243161901462,3.0162902802668996
1.9266743012298049,-4.4181423601377885,7.512406064704131,3.1796712077815847
1.882492877628427,-4.612104187571073,7.5442027767819475,3.3613713438571557
1.8363718357527163,-4.819087790948539,7.577816490220519,3.560168135518945
1.788180957843231,-5.037355100238442,7.6134181715757085,3.7726431485450584
1.7378074068408467,-5.262846691114995,7.651144603061159,3.9919072644600684
1.6851789399296968,-5.488134120852112,7.6910636757057596,4.206089775547452
1.6302975987211756,-5.70158528954364,7.733124573461234,4.397139930975504
1.5732817458257393,-5.887596856877546,7.777095972770989,4.541162806686564
1.514405777256964,-6.029052589679411,7.822507600837855,4.6119468717642125
1.4541152513601698,-6.112415756115794,7.868627069555497,4.588276612550235
1.392991093799012,-6.133504377341831,7.914509835681,4.462269345315258
1.3316560500255936,-6.099918425970014,7.959132529134152,4.242997920938134
1.2706568657658934,-6.027827732019748,8.001562508343532,3.9520877739030773
1.210378588445696,-5.935566223423745,8.041083386082564,3.6146879932877214
1.1510229262114584,-5.838463756926075,8.077230266015441,3.252088401345737
1.0926382886421977,-5.7468966236870775,8.109751150028899,2.878845127868896
1.0351693224053269,-5.666712958408636,8.138539601307588,2.5032820969278577
0.9785021928212405,-5.600513173695049,8.163572422276866,2.129245737462287
0.92249706108429,-5.548868609847064,8.184864879651489,1.7578149422326304
0.8670083749858193,-5.511191768890548,8.202443029073814,1.3885490793835347
0.8118964572969138,-5.486274501772493,8.21632851986765,1.0202857311130866
0.7570337122791889,-5.472590385970388,8.22653137717878,0.6516161595239114
0.702307808419485,-5.4684498932013605,8.23304753877402,0.2811585727773509
0.6476233094874715,-5.4720702339430325,8.235859124501793,-0.09228688341233365
0.5929026071480412,-5.48159863371352,8.23493625566767,-0.4696495861630989
0.538086620810906,-5.495112201478163,8.230239759806038,-0.8515366074448685
0.48313549879612433,-5.510608075906164,8.22172439373159,-1.2382016139770489
0.4280294180370627,-5.525992066566321,8.209342377591819,-1.6295267026838802
0.37276949737139947,-5.539070913033242,8.19304711056498,-2.0250141377264748
0.3173787882410671,-5.547551502979379,8.172796969187715,-2.423787639029847
0.26190327321127327,-5.549049275462236,8.148559092797417,-2.8246042758489196
0.2064127804566509,-5.541107210778399,8.120313050038927,-3.225878587807796
0.1510017083488669,-5.521226062985031,8.08805426416085,-3.6257205412683424
0.09578944771901658,-5.4869057196158515,8.051797058748166,-4.0219884850615415
0.04092039052285806,-5.43569673691535,8.011577173897551,-4.412357509783749
-0.013436576846295442,-5.365260204094901,7.967453598799714,-4.79440263961991
-0.06708917888724446,-5.2734331716944,7.9195095724035145,-5.165695193859946
-0.11982351060418846,-5.15829599142506,7.867852620464915,-5.523909545889462
-0.17140647051843905,-5.018237126778629,7.812613525006021,-5.866936479374163
-0.22158884178622534,-4.85201038774879,7.753944160212279,-6.192998495721118
-0.27010894566371324,-4.658779214655258,7.692014175255068,-6.500761871862944
-0.3166967378102658,-4.438142687485733,7.627006556536438,-6.789440121175623
-0.36107816468512316,-4.190138460284961,7.559112155324682,-7.058883894663489
-0.40297954928797275,-3.9152188671765087,7.488523316378047,-7.309653377705765
-0.4421317379597378,-3.6141979948576677,7.415426782600989,-7.543070937125695
-0.4782737179083145,-3.288169441777511,7.339996073229733,-7.7612541021833
-0.5111554123260896,-2.938396563973153,7.2623835322079,-7.967131734701643
-0.5405393779658212,-2.566178970605926,7.182712214860883,-8.164449119769884
-0.5662011676718804,-2.172700669146252,7.101067723663184,-8.357770191722867
-0.587928174363343,-1.7588666034742284,7.017490021745956,-8.55248649750798
-0.6055168403980853,-1.3251359354545067,6.931965156770876,-8.754841691492318
-0.6187681997526303,-0.8713638652004931,6.844416739855953,-8.971975304257512
-0.6274818384046352,-0.3966726312898802,6.754696986813378,-9.211975896583734
-0.6314485647175341,0.10060578531306824,6.662577227847541,-9.483901868759975
-0.6304425068644034,0.6228216891708782,6.567738209159941,-9.797656826996688
-0.6242142899726946,1.1725274177489924,6.469761640889974,-10.1634499728725
-0.6124890157952046,1.7511784174783522,6.368127141161249,-10.590241170742681
-0.5949772316204212,2.3561087165435537,6.2622247294538225,-11.0819267862618
-0.5714161444549856,2.9741749058675513,6.151405461591205,-11.629023260869205
-0.54167439539631,3.5701967982866143,6.035115228982513,-12.193138564255806
-0.5059724274134438,4.0717807224934655,5.913183843339955,-12.686084252091366
-0.46525462018850916,4.366663974885934,5.786323000819042,-12.965281107946717
-0.42158798043964985,4.348780952751038,5.656670189739575,-12.89466752499436
-0.3781001709121395,4.010691829591589,5.527723514489631,-12.4677078436979
-0.3379932526162236,3.4665923455877428,5.4030464360526524,-11.83542931001265
-0.30332732916034616,2.854069242213871,5.284692142952526,-11.173192668581127
-0.27478663673820747,2.25530804870963,5.1729602162667145,-10.578816911453586
-0.25223355625111116,1.6998479399087407,5.067172047152178,-10.080676401911058
-0.23523507685202374,1.191254292819694,4.966365283133068,-9.674935007866193
-0.2233225339238268,0.7241649035330058,4.869615933054406,-9.348053139147417
-0.21608088488849675,0.29146887662233173,4.776135401662931,-9.085676366938301
-0.21316619612227344,-0.11326796678433293,4.685278637993548,-8.875274781951804
-0.21429887579011678,-0.4951979560114916,4.59652589017403,-8.70653367181692
-0.2192508553502317,-0.858197078009201,4.509460553455861,-8.571075958839693
-0.2278328261303237,-1.2050396623200068,4.423749793867464,-8.46206175820183
-0.23988322275352378,-1.537594600516357,4.339129176285446,-8.37383043870078
-0.25525916875868737,-1.8570009220748873,4.255390871898438,-8.301621497622845
-0.27382917797943623,-2.163816249694707,4.1723746569222095,-8.241370582223212
-0.2954673404763833,-2.458142255002312,4.089960951099977,-8.189567111971067
-0.3200487630264064,-2.7397330663340136,4.008065279980267,-8.143159461897813
-0.34744609368974655,-3.0080915577574863,3.9266336853612884,-8.099495536603415
-0.3775270092673214,-3.2625566985220713,3.845638729995254,-8.056288604678175
-0.41015257625254214,-3.502383428398432,3.7650758439484724,-8.011599953502241
-0.44517641053652646,-3.7268151293917056,3.68495984441345,-7.963831287014099
-0.4824445618304435,-3.9351477994232664,3.605321531543309,-7.911720983007808
-0.5217960398246761,-4.126784536771541,3.526204321713231,-7.854339497973126
-0.5630638851923916,-4.301278902317529,3.4476609267334997,-7.791080436617851
-0.6060766742155669,-4.458366077707218,3.369750122367321,-7.721645092627681
-0.6506603349926391,-4.597981374026578,3.2925336714410443,-7.646019553655227
-0.6966401487329048,-4.72026642898919,3.216073475904492,-7.56444464420635
-0.7438428130227968,-4.82556421434567,3.1404290294624286,-7.477379945846022
-0.7920984551662534,-4.91440463042718,3.0656552300039683,-7.3854638004825
-0.8412425014705253,-4.987482901834679,2.9918005919991435,-7.28947153069748
-0.8911173304888721,-5.0456331680539215,2.9189058766921687,-7.1902741150034855
-0.9415736621694113,-5.089799595275335,2.847003135542134,-7.088799294572888
-0.9924716581221646,-5.121007068953936,2.7761151425964052,-6.985996648585246
-1.043681728811704,-5.140333129735482,2.706255176110553,-6.882807652769657
-1.0950850601090587,-5.148882361190181,2.6374270995828564,-6.780141214660794
-1.1465738837209605,-5.147763989536529,2.5696256874362486,-6.678854722409052
-1.1980515236163258,-5.13807305893967,2.5028371402121583,-6.5797402884384235
-1.2494322542057226,-5.120875227174098,2.437039737327774,-6.483515627303054
-1.3006410064774636,-5.097194994117655,2.3722045810547434,-6.390818872594021
-1.35161295641864,-5.068007025337766,2.308296392328803,-6.302206592915735
-1.4022930266720177,-5.034230152623232,2.2452743263996457,-6.218154288919268
-1.45263532819825,-4.99672360690919,2.183092783510453,-6.139058719170409
-1.502602564267342,-4.956285050685561,2.1217021963187492,-6.065241492283404
-1.5521654147741977,-4.913650012611881,2.061049781395915,-5.996953460791605
-1.6013019149003165,-4.869492375482865,2.0010802467879993,-5.9343795478973105
-1.6499968386551451,-4.824425621735857,1.9417364513090263,-5.877643724988142
-1.6982410948725037,-4.7790045929414235,1.882960014059145,-5.826813932393539
-1.746031140801918,-4.733727567970872,1.8246918747352094,-5.7819067974261
-1.7933684164816268,-4.689038507236697,1.7668728067609485,-5.742892052978109
-1.8402588015539938,-4.645329347126305,1.7094438862311674,-5.709696598338065
-1.886712095025257,-4.602942259765512,1.6523469202477867,-5.682208173322458
-1.9327415176229121,-4.562171819202556,1.5955248385145622,-5.660278639176899
-1.9783632358149377,-4.523267036794478,1.538922052122793,-5.643726876713129
-2.0235959061828823,-4.486433246811766,1.4824847833556618,-5.632341325274065
-2.068460238651,-4.45183383878011,1.4261613701029212,-5.625882196518482
-2.1129785770388008,-4.419591846449089,1.3699025481377365,-5.624083405554807
-2.1571744955032917,-4.389791414967048,1.3136617140821885,-5.626654269222014
-2.201072409652962,-4.362479178145184,1.2573951713899683,-5.633281027664783
-2.244697201434414,-4.337665586754701,1.2010623611133204,-5.643628250919093
-2.288073857301961,-4.31532623661581,1.1446260786041296,-5.657340196970836
-2.3312271196681187,-4.295403251667499,1.0880526766344212,-5.6740421914767
-2.3741811521847938,-4.277806781991972,1.0313122547196543,-5.693342101718031
-2.4169592200047134,-4.262416679545534,0.9743788337024739,-5.714831977969278
-2.4595833868001686,-4.249084414682194,0.9172305139227811,-5.738089933811713
-2.5020742309469908,-4.237635293974641,0.8598496145846639,-5.762682332494199
-2.544450583886737,-4.22787103387853,0.802222791259722,-5.788166338746792
-2.5867292942255222,-4.219572735061573,0.744341127872254,-5.814092884088274
-2.628925021576138,-4.212504288481527,0.6862001990313713,-5.840010078391311
-2.671050064460953,-4.206416226516022,0.6278000982474582,-5.865467081264569
-2.7131142267261135,-4.20105001088018,0.5691454274348124,-5.890018423965455
-2.7551247268349153,-4.196142724322267,0.5102452431951578,-5.913228746711098
-2.797086154078138,-4.191432106156977,0.4511129557280469,-5.934677888437167
-2.8390004751397075,-4.1866618439618115,0.3917661768436752,-5.953966237674715
-2.8808670935793255,-4.181587006949896,0.3322265144669281,-5.970720226017498
-2.9226829636488243,-4.175979482614956,0.2725193122067531,-5.984597821609703
-2.964442758474974,-4.1696332592928105,0.21267333399065605,-5.99529386125007
-3.0061390910679022,-4.16236938527815,0.15272039537815535,-6.0025450480246745
-3.0477627849206836,-4.154040431746036,0.09269494489790861,-6.006134438463639
-3.089303189238144,-4.144534293099865,0.032633600513272215,-6.005895250148495
-3.1307485321691426,-4.13377717493574,-0.027425351988212734,-6.001713837846876
-3.1720863039185,-4.121735646177163,-0.0874424903666815,-5.993531713164134
-3.2133036603802716,-4.108417666821526,-0.14737780749832285,-5.981346518067723
-3.254387837048487,-4.093872544072247,-0.2071912726790001,-5.965211904366934
-3.295326562489209,-4.078189814687327,-0.2668433917226694,-5.945236316608294
-3.3361084606360825,-4.061497097046058,-0.32629575488875234,-5.921580721797138
-3.376723431606543,-4.043956999524067,-0.3855115621067237,-5.894455372727136
-3.4171630016017835,-4.025763209309417,-0.4444561158339951,-5.864115729575356
-3.457420633694878,-4.007135915347733,-0.5030972731297486,-5.830857694396923
-3.497491992848355,-3.988316738975712,-0.5614058500737178,-5.795012333551513
-3.5373751602381125,-3.9695633551665126,-0.6193559734092329,-5.756940273082357
-3.5770707937897774,-3.9511439862393973,-0.6769253761400564,-5.717025951684831
-3.6165822336521716,-3.9333319392700687,-0.7340956356569047,-5.675671905979237
-3.6559155530448724,-3.916400339825521,-0.7908523547166971,-5.633293244818202
-3.695079556443128,-3.9006171900316238,-0.8471852871648792,-5.590312445232273
-3.734085728343444,-3.886240850568564,-0.9030884116172019,-5.547154574485679
-3.7729481368491298,-3.8735160161730087,-0.9585599573620587,-5.504243012721217
-3.81168329701086,-3.8626702246017914,-1.0136023874892708,-5.4619957207851915
