th1 (rad),w1 (rad/s),th2 (rad),w2 (rad/s)
1.5876132926574933,-2.3745184783396653,2.0859155880916886,1.1870789518655418
1.5638681078740966,-2.448316159047636,2.097786377610344,1.1396719630138796
1.5393849462836202,-2.5199696326416223,2.109183097240483,1.0861434930469902
1.514185249957204,-2.589566178753477,2.120044532170953,1.0263506725803222
1.4882895881696692,-2.6572155933159016,2.1303080388967564,0.9601857573172466
1.46171743223651,-2.7230426658511595,2.139909896469929,0.8875685356817343
1.4344870055779986,-2.7871795625742997,2.148785581826746,0.8084388429861894
1.4066152099522555,-2.8497584697290397,2.156869970256608,0.7227497262085214
1.3781176252549652,-2.9109047385256237,2.164097467518693,0.6304616533291034
1.349008577869709,-2.9707306641837286,2.170402084051984,0.5315380131554669
1.3193012712278718,-3.0293299393217725,2.175717464183539,0.4259420227078171
1.289007971834654,-3.086772752614636,2.179976884410617,0.31363505821282256
1.2581402443085077,-3.143101458592352,2.1831132349927453,0.19457635420770802
1.2267092297225841,-3.198326721613605,2.1850589985348225,0.06872397003153033
1.1947259625064481,-3.2524240325765117,2.185746238235138,-0.06396310168411998
1.162201722180683,-3.3053305064563037,2.1851066072182967,-0.2035218206043265
1.1291484171161201,-3.3569418882019586,2.1830713890122535,-0.3499811173883598
1.0955789982341004,-3.407109720486029,2.1795715778383697,-0.5033571849579429
1.06150790102924,-3.455638656672253,2.1745380059887904,-0.6636481836948193
1.0269515144625176,-3.502283934219512,2.1679015241518425,-0.8308285080079872
0.9919286751203226,-3.5467490561466084,2.1595932390717625,-1.0048427735630265
0.9564611845588564,-3.5886837599763197,2.149544811336132,-1.1855997026786464
0.9205743469590932,-3.6276823836496757,2.1376888143093455,-1.3729661096935242
0.8842975231225965,-3.66328276501968,2.1239591532124105,-1.5667612174432883
0.8476646954723996,-3.6949658342125993,2.1082915410379774,-1.766751568611129
0.8107150371302736,-3.722156074574363,2.090624025351866,-1.9726468292209587
0.7734934763845299,-3.7442230359541933,2.0708975570596566,-2.184096812934036
0.736051246024988,-3.7604840812936784,2.0490565889303163,-2.4006900806006137
0.6984464052120511,-3.770208531315031,2.02504968812431,-2.6219544858816604
0.6607443198989008,-3.7726233400207043,1.9988301432654936,-2.847360040757473
0.6230180864986937,-3.76692038354568,1.9703565428579188,-3.076324460649259
0.5853488826632369,-3.75226537514087,1.9395932982514263,-3.3082217145641724
0.5478262289118282,-3.7278083292858333,1.9065110811057846,-3.5423938490618996
0.5105481456189699,-3.692695389208473,1.8710871426151656,-3.7781662754193013
0.47362119172688516,-3.6460817074254432,1.8333054798609727,-4.014866608672931
0.43716037465263075,-3.5871449335901024,1.7931568137742433,-4.251847029229642
0.4012889253167297,-3.5150987257682407,1.7506383434819468,-4.488510009096808
0.3661379380590473,-3.429205570732452,1.7057532433909788,-4.724337114684825
0.3318458823517228,-3.328788089055606,1.6585098722441305,-4.958920477670101
0.29855800146116673,-3.213237927236611,1.6089206674674295,-5.191996426151587
0.2664256221888006,-3.0820213197983453,1.5570007032059137,-5.423480699759133
0.23560540899081717,-2.9346804602963634,1.5027658962083223,-5.6535046375386
0.20625860438785354,-2.7708299777128316,1.4462308498329364,-5.882451716032038
0.1785503046107252,-2.590148110638785,1.387406332672616,-6.110993791990095
0.15264882350433737,-2.392362665001878,1.326296394752715,-6.3401262910806135
0.1287251968543186,-2.177232635826387,1.262895131841909,-6.571201226360285
0.10695287049605473,-1.9445276610206135,1.1971831195783063,-6.805956040483613
0.0875075938858486,-1.6940096113969,1.12912355917347,-7.046534319767973
0.0705674977718796,-1.425424262409049,1.0586582159757902,-7.295490481961012
0.05631325514778911,-1.1385173272553781,0.9857033111561802,-7.555762906968583
0.04492808187523532,-0.8331002420987292,0.9101456820864943,-7.830585710489643
0.03659707945424803,-0.50921044231011,0.8318398249815978,-8.12328351683769
0.03150497503114693,-0.16744357197890458,0.7506069898132209,-8.43684870803919
0.029830539311357884,0.19041339403341923,0.666238502732829,-8.77312820555451
0.031734673251692075,0.5602504195042995,0.5785072206772839,-9.13134709438423
0.03733717744673507,0.9337554702265661,0.4871937497334416,-9.505613619885459
0.04667473214900073,1.2956441289591294,0.392137613534587,-9.881167625920833
0.059631173438592026,1.6204708707352258,0.29332593727537865,-10.22993994948372
0.07583588214594428,1.8711722838302356,0.19102653778054146,-10.508243094077182
0.09454760498424664,2.0039657350171436,0.08594410683976964,-10.662787701241367
0.11458726233441807,1.9837482251141765,-0.020683770172644042,-10.65063759542848
0.13442474458555984,1.804355310390119,-0.12719014612692886,-10.46554955970878
0.15246829768946102,1.4953338188497145,-0.23184564172401667,-10.146191350406719
0.16742163587795816,1.1057200605516857,-0.33330755522808386,-9.754096389363289
0.178478836483475,0.6809347758131956,-0.43084851912171673,-9.343528779138106
0.18528818424160698,0.25143826157867566,-0.5242838069130978,-8.947744812860837
0.18780256685739374,-0.1664389790643685,-0.6137612550417062,-8.58125607058835
0.18613817706675007,-0.5654993009439067,-0.6995738157475897,-8.247034318338585
0.180483184057311,-0.9433588577878844,-0.7820441589309756,-7.942370374459168
0.17104959547943216,-1.2998035889472863,-0.8614678626755672,-7.662314095856953
0.15805155958995928,-1.6354106731696223,-0.9380910036341368,-7.401393932797032
0.14169745285826307,-1.9509041664068427,-1.0121049429621072,-7.154384595296786
0.12218841119419464,-2.246891494332833,-1.083648788915075,-6.916607681809113
0.09971949625086632,-2.523785955310468,-1.152814865733166,-6.68402096948911
0.07448163669776164,-2.7818156562928937,-1.219655075428057,-6.453219839040189
0.04666348013483271,-3.021069554212216,-1.284187273818459,-6.221406719877229
0.01645278459271055,-3.2415563459581525,-1.3464013410172313,-5.986351851770332
-0.015962778866870978,-3.443264161055521,-1.4062648595349345,-5.746353581930256
-0.05039542047742619,-3.626214936682604,-1.463728395354237,-5.500199821747685
-0.08665756984425224,-3.7905102972564104,-1.5187303935717138,-5.247129745549351
-0.12456267281681635,-3.936367328911396,-1.5712016910272073,-4.9867941864140155
-0.16392634610593032,-4.064143593614313,-1.6210696328913474,-4.7192134324330315
-0.20456778204207346,-4.174351410055697,-1.6682617672156776,-4.4447317329381715
-0.24631129614263042,-4.2676619756477345,-1.7127090845450594,-4.163968519196953
-0.2889879158991078,-4.344900356193309,-1.754348769737029,-3.8777669825757397
-0.33243691946104087,-4.407032726520745,-1.7931264395627864,-3.5871411566590017
-0.3765072467262483,-4.455147494091503,-1.8289978511293765,-3.293222980536802
-0.42105872166716335,-4.490432068160901,-1.8619300809347445,-2.9972109687260393
-0.46596304234877234,-4.514147047926208,-1.891902190622005,-2.7003220898930094
-0.5111045128280344,-4.5275995026214435,-1.9189054115209352,-2.4037482877560166
-0.5563805078542488,-4.5321168218287236,-1.9429428943984954,-2.108618799627532
-0.601701676072536,-4.5290223485821235,-1.9640290823947708,-1.815969083074004
-0.6469918995583572,-4.519613697239014,-1.9821887732255108,-1.5267167925638838
-0.6921880365307473,-4.505144328307653,-1.9974559411511497,-1.2416448966650329
-0.7372394798138239,-4.486808625842554,-2.0098723901178,-0.9613917276555216
-0.7821075660722494,-4.465730416338806,-2.019486307394355,-0.6864475370494469
-0.8267648702356375,-4.4429545906273145,-2.0263507827648493,-0.41715701201733296
-0.8711944161419106,-4.419441243314844,-2.0305223528850225,-0.15372720104890725
-0.9153888285750591,-4.396061520928358,-2.0320596248955116,0.10375959103788956
-0.9593494437843427,-4.373594155897077,-2.0310220289851326,0.3553281450652148
-1.0030853853433135,-4.352721438977931,-2.0274687475344804,0.6010877548843746
-1.0466125997330928,-4.334023125214212,-2.0214578699856367,0.8412041045831602
-1.0899528309852349,-4.317966458522738,-2.013045828939805,1.0758643524117564
-1.1331324955704623,-4.304890131924089,-2.0022871854156876,1.3052334669726622
-1.1761813968897032,-4.294979603584985,-1.989234850745961,1.5293991101224262
-1.219131192925553,-4.288230866611552,-1.9739408596447368,1.7483017327591226
-1.2620135015916685,-4.284399768145192,-1.9564578423171455,1.9616463999165987
-1.3048574992731203,-4.28293478259323,-1.9368413783179794,2.168793885666858
-1.3476868470990526,-4.282893633342115,-1.9151534394613108,2.36863199244212
-1.3905157834324737,-4.282849651573916,-1.8914671195368895,2.5594356984880253
-1.4333442799482128,-4.280803840774877,-1.8658727625520093,2.7387388086410644
-1.4761523183559615,-4.27413416040473,-1.8384853744655987,2.9032614531835037
-1.5188936599600087,-4.2596323571877015,-1.8094527599337635,3.0489638733406683
-1.5614899835318856,-4.2336916455924785,-1.778963121200357,3.1713145413941497
-1.6038268999878105,-4.192696953984178,-1.7472499757864155,3.2658434350404066
-1.6457538695276523,-4.1336110025934625,-1.7145915414360113,3.328968019336432
-1.687089979553587,-4.054641428712803,-1.681301861242647,3.3589268704424025
-1.727636393840715,-3.9557646494552916,-1.6477125925382228,3.356502425840052
-1.767194040335268,-3.838865813429504,-1.6141475682798223,3.3251937836358305
-1.8055826984695629,-3.7073928237969707,-1.580895630443464,3.2706991332426423
-1.8426566267075326,-3.5656503505050243,-1.5481886391110375,3.199891010139924
-1.8783131302125828,-3.41801376247396,-1.5161897290096382,3.119684605329156
-1.9124932678373225,-3.268321092206778,-1.4849928829563466,3.036166287962219
-1.9451764787593904,-3.119555931986766,-1.4546312200767244,2.9541417532790173
-1.976372038079258,-2.9737909058298606,-1.4250898025439342,2.877059047880124
-2.0061099471375567,-2.8322937769768792,-1.396319212065133,2.8071656330784918
-2.0344328849073254,-2.6957002710136555,-1.368247555734348,2.7457617477163714
-2.061389887617462,-2.5641902660923863,-1.3407899382571844,2.6934589653825376
-2.087031790278386,-2.437636972999338,-1.313855348603359,2.650400055996341
-2.1114081600083794,-2.315720662554356,-1.2873513480433956,2.616427740360265
-2.134565366633923,-2.1980095508069004,-1.261187070639793,2.5912058599400227
-2.156545462141992,-2.084014411683459,-1.2352750120403928,2.5743022566313707
-2.177385606258827,-1.9732238302492817,-1.209531989474079,2.565243227418706
-2.1971178445613195,-1.8651259264578686,-1.183879557199892,2.563547916869157
-2.2157691038258984,-1.7592209790989433,-1.1582440780312004,2.5687490305196348
-2.233361313616888,-1.6550281210204887,-1.132556587726004,2.580404458029115
-2.249911594827093,-1.5520882917150063,-1.1067525431457128,2.5981029821122266
-2.265432477744243,-1.449964916241413,-1.0807715133245905,2.621466214170806
-2.2799321269066573,-1.348243279441505,-1.0545568511828824,2.6501481705808807
-2.2934145597010724,-1.246529225521262,-1.0280553694770735,2.683833406451249
-2.305879851956285,-1.1444475880159333,-1.0012170354125611,2.7222342896674325
-2.3173243278364444,-1.041640608145389,-0.9739946925158868,2.7650877764621957
-2.3277407339178984,-0.9377665049963558,-0.9463438147512648,2.812151904258415
-2.337118398967862,-0.8324983011285007,-0.9182222957086806,2.8632021229454647
-2.345443381979147,-0.7255229700651391,-0.889590274479226,2.9180275250424725
-2.352698611679798,-0.6165409496087213,-0.8604099992288012,2.9764269970270516
-2.358864021175885,-0.5052660515876586,-0.8306457292585308,3.0382052910170403
-2.363916681691762,-0.3914257908281544,-0.8002636763483604,3.103169003167313
-2.367830939600043,-0.27476215133631177,-0.7692319863166872,3.171122439531012
-2.3705785611134065,-0.15503280409631537,-0.737520761921377,3.2418633498597824
-2.3721288891543697,-0.03201278723636419,-0.7051021284227792,3.3151785137857583
-2.3724490170267334,0.09450334541675692,-0.6719503432849216,3.390839171449887
-2.3715039835725658,0.22469890798247286,-0.6380419515704228,3.4685963016371226
-2.369256994492741,0.3587320080962265,-0.6033559885540516,3.5481757647302654
-2.365669674411779,0.4967320363062194,-0.5678742309067489,3.629273345219156
-2.360702354048717,0.6387957567608603,-0.5315814974545574,3.711549748945157
-2.3543143964811084,0.7849830557333286,-0.4944659999651058,3.7946256333869663
-2.346464565923775,0.9353124269870969,-0.45651974363123615,3.8780767744857374
-2.3371114416539043,1.089756298309466,-0.41773897588637876,3.9614294997733577
-2.3262138786708095,1.2482363307745943,-0.3781246808886452,4.044156543467878
-2.3137315153630635,1.4106188499769186,-0.33768311545396645,4.125673502811395
-2.2996253268632945,1.576710594594599,-0.2964263804258525,4.205336093865164
-2.2838582209173484,1.7462549896924002,-0.25437301948720087,4.282438416509735
-2.2663956710204243,1.9189291672716213,-0.21154863532210352,4.356212439653131
-2.247206379347708,2.0943419617064825,-0.1679865109255722,4.425828905954164
-2.226262959730643,2.2720331000896516,-0.12372822186603057,4.490399828694599
-2.2035426287297466,2.451473785069737,-0.07882422357908457,4.54898271093212
-2.1790278908790492,2.6320688296734427,-0.03333439646976337,4.600586559599299
-2.152707202582315,2.813160450809065,0.012671469126229622,4.644179697799609
-2.124575598074224,2.9940337637552465,0.05911326610422571,4.678699302568271
-2.0946352604366716,3.173923949351048,0.10590025912990841,4.7030625203793415
-2.0628960209431613,3.352024996247366,0.15293088433370183,4.716178947775918
-2.0293757709806877,3.5274998611599226,0.200092673811461,4.716964219068502
-1.9941007723690884,3.699491849327381,0.24726231600214604,4.704354425086645
-1.9571058538758146,3.867137002498073,0.2943058602530125,4.677321101103311
-1.9184344838508338,4.029577296573263,0.3410790712640456,4.634886567577636
-1.878138710885101,4.185974494404431,0.3874279369398219,4.576139476766173
-1.8362789659410568,4.335524564054738,0.43318933170748364,4.500250496630717
-1.7929237203005093,4.477472645816004,0.47819183667379084,4.406488129246827
-1.7481489938423493,4.611128614017081,0.5222567179662592,4.294234688108177
-1.7020377077021784,4.73588331094255,0.565199064847341,4.163002420786377
-1.654678874592753,4.851225509481942,0.6068290890552047,4.01244963845512
-1.6061666194979336,4.956759573081497,0.6469535854397559,3.8423964906476735
-1.5565990237671186,5.0522236207988485,0.6853775503462326,3.6528397078833468
-1.50607678755913,5.137507780826558,0.7219059474250661,3.4439652536547034
-1.4547017097508645,5.212671854223522,0.7563455999616131,3.216157431475941
-1.4025749912086294,5.277961455901878,0.7885071742763725,2.9700026540010955
-1.3497953766496107,5.333821510246312,0.8182072008163834,2.7062858836754904
-1.2964571615471476,5.380905917756397,0.8452700596531383,2.4259777790686945
-1.2426481023695837,5.420082333359374,0.8695298374438253,2.1302108856282005
-1.18844727903599,5.452431341025533,0.8908319463001073,1.8202438066478033
-1.1339229656257346,5.479239871955878,0.9090343843665853,1.4974131304492624
-1.0791305669061757,5.501989451063545,0.924008515671078,1.1630738571949109
-1.0241106723955402,5.522340685438057,0.9356392542430271,0.8185299932701744
-0.9688872655411597,5.542116221595907,0.9438245541757289,0.4649576685350243
-0.9134661033252006,5.563285088982868,0.9484741308610791,0.10332340509497134
-0.8578332524353719,5.58795183693052,0.9495073649120288,-0.26570009202142786
-0.8019537340660667,5.618354131148522,0.9468503639918145,-0.6418190702356686
-0.7457701927545816,5.656872526690214,0.9404321732894578,-1.0252045453616585
-0.6892014674876794,5.706056033534302,0.9301801278358413,-1.4165801780209961
-0.6321409071523364,5.768666878502825,0.9160143260556313,-1.81731526321813
-0.5744542383673081,5.847747470798545,0.8978411734234499,-2.229527176218826
-0.5159767636593227,5.946711627658367,0.8755459016612617,-2.656197744866642
-0.45650964738273897,6.069459555873861,0.8489839242125953,-3.1013053455032007
-0.39581505182400034,6.220509313292956,0.8179708707575633,-3.569965356462374
-0.3336099586910708,6.405120386325112,0.7822712171929395,-4.068547442520149
-0.26955875482781966,6.629343558708588,0.7415857427677379,-4.604679404279841
-0.20326531924073377,6.899833686961936,0.6955389487249395,-5.186909712658802
-0.1342669823711144,7.2230398982585085,0.6436698515983514,-5.823488671773765
-0.06203658338852931,7.60291042218486,0.5854349648806138,-6.519058686321136
0.013992520833319283,8.035354224163118,0.5202443780174024,-7.266790690058273
0.09434606307495047,8.496630724477356,0.4475764711168197,-8.032010149163169
0.17931237031972402,8.924274050773676,0.36725636962518804,-8.725400196178967
0.26855511082746075,9.202598080869242,0.28000236766339837,-9.182814523425582
0.36058109163615315,9.19701991293111,0.18817422242914256,-9.214014017077584
0.45255129076546424,8.867035897235066,0.09603408225836671,-8.762145266585161
0.541221649737815,8.330397916105335,0.008412629592515097,-7.994240233360787
0.6245256288988683,7.751292576352708,-0.07152977274109278,-7.143734758463345
0.7020385546623954,7.22488613031567,-0.14296712032572623,-6.347531767723341
0.7742874159655521,6.778355275146822,-0.20644243800295964,-5.646758814138041
0.8420709687170203,6.408274653072391,-0.26291002614434006,-5.038984135581942
0.9061537152477441,6.10280357548308,-0.3132998675001595,-4.509405628039603
0.967181751002575,5.849848996615192,-0.3583939237805555,-4.04245535635438
1.025680240968727,5.639228168246555,-0.3988184773440993,-3.624977549735956
1.0820725226511925,5.462851747337459,-0.4350682528414589,-3.246597888186216
1.136701040124567,5.314386328687853,-0.46753423172332104,-2.8993334098833534
1.1898449034114456,5.188855234759634,-0.49652756582215457,-2.577093841535387
1.2417334557590418,5.082299309025707,-0.5222985042375085,-2.2752510452951253
1.2925564488492989,4.991515207419866,-0.5450510146904597,-1.9903049629965814
1.3424716009234976,4.913860689246942,-0.5649540643204255,-1.7196334745920963
1.3916102078159671,4.847111979260128,-0.5821503990663465,-1.4613062060780337
1.4400813276085684,4.789360260905941,-0.5967634611271269,-1.2139444000351063
1.487974930217628,4.738937422578499,-0.6089029051274779,-0.9766129174316495
1.5353643044434129,4.694363822066695,-0.6186690343017944,-0.7487341171266596
1.5823079426640798,4.654312783056801,-0.626156375473061,-0.5300163233874057
1.6288510704946477,4.617587866175937,-0.6314565387069351,-0.32039189522734857
1.6750269491564072,4.583109816646297,-0.6346604576592085,-0.11996170033719258
1.72085804732287,4.549910628870905,-0.6358600746625804,0.07105580802174521
1.7663571536115792,4.5171325106591285,-0.635149516582363,0.2523716370441189
1.8115284787181705,4.484029776740925,-0.6326258002119217,0.42366935917475584
1.8563687764855796,4.449971927622402,-0.6283891066201741,0.5846436948419284
1.9008684957618036,4.414446424258515,-0.6225426696717549,0.7350337400192465
1.9450129600043888,4.377059973393266,-0.6151923322715624,0.8746499974233138
1.9887835597383214,4.337537490026671,-0.6064458322973293,1.0033945668299677
2.032158934638588,4.29571828012932,-0.5964118866290297,1.121274192514507
2.0751161174398813,4.251549354826072,-0.5851991447038846,1.2284062825750395
2.117631610988142,4.205076111098018,-0.5729150818781342,1.3250184326767809
2.1596823720991223,4.156430864292559,-0.5596648975513664,1.4114423425861038
2.201246680742048,4.105819877261293,-0.5455504741255054,1.4881032641133665
2.242304879514661,4.053509596937255,-0.5306694414843717,1.5555062436948521
2.2828399754840336,3.9998127916748345,-0.5151143790474232,1.6142204243009193
2.322838103400782,3.945075200778933,-0.49897217480441397,1.6648625695418138
2.3622888554085715,3.889663184566388,-0.48232354910899583,1.7080807977896797
2.4011854872542355,3.8339527218931693,-0.46524274113109904,1.7445392987554358
2.4395250144731673,3.7783199615667153,-0.44779734814354466,1.7749045792437361
2.4773082140888345,3.7231334082985015,-0.4300483023511073,1.7998335722406622
2.5145395481718196,3.6687477210068318,-0.4120499666287007,1.8199637596482543
2.551227025381888,3.6154990245229697,-0.39385032903221817,1.8359053118732696
2.5873820156271177,3.5637015844708952,-0.37549127591348547,1.84823513891611
