th1 (rad),w1 (rad/s),th2 (rad),w2 (rad/s),a1 (rad/s^2),a2 (rad/s^2)
4.065428597532153,1.5928737052313606,4.609211958001759,1.6091892964762828,7.699510584745746,1.8462563887055354
4.081357334584467,1.669868811078818,4.625303850966522,1.627651860363338,7.94860760286875,1.5183779147943846
4.098056022695255,1.7493548871075055,4.641580369570155,1.642835639511282,8.205365888382667,1.1699188177956605
4.11554957156633,1.8314085459913323,4.658008725965268,1.6545348276892387,8.469670217505087,0.8002232130801112
4.133863657026243,1.9161052481663832,4.6745540742421605,1.6625370598200397,8.741401191203382,0.408712520020296
4.153024709507907,2.003519260078417,4.691179444840361,1.6666241850202428,9.020432115057902,-0.005082989780674295
4.173059902108691,2.093723581228996,4.707845686690564,1.666573355122436,9.3066225349418,-0.4414840829901639
4.193997137920981,2.186789806578414,4.724511420241788,1.6621585142925344,9.599806934401258,-0.9006115867463966
4.215865035986765,2.2827878759224265,4.741133005384713,1.6531523984250704,9.899776599266138,-1.382321577561889
4.238692914745989,2.381785641915088,4.757664529368963,1.6393291826494516,10.206252014106022,-1.8861229344897512
4.2625107711651395,2.483848162056148,4.774057821195457,1.620467953304554,10.518842346732919,-2.4110724056807737
4.287349252785701,2.5890365855234774,4.790262500728503,1.5963572292477464,10.836987578554192,-2.955641056138931
4.313239618640935,2.6974064613090194,4.806226073020981,1.5668008186863571,11.159877642420536,-3.517544454232951
4.340213683254025,2.8090052377332246,4.821894081207844,1.5316253741440276,11.486341561614909,-4.093527274471257
4.368303735631358,2.923868653349374,4.837210334949285,1.490690101399315,11.814698136666543,-4.679091308860654
4.397542422164851,3.0420156347160394,4.852117235963278,1.4438991883107084,12.142558416078417,-5.268154541743444
4.427962578512012,3.1634412188768235,4.866556227846385,1.3912176428932739,12.46656943859873,-5.852628623776072
4.4595969907007795,3.2881069132628107,4.880468404275319,1.3326913566555132,12.782089315646758,-6.42190395759376
4.492478059833408,3.4159278064192784,4.893795317841874,1.2684723170795755,13.082786920358856,-6.962237620757154
4.526637337897601,3.546755675622867,4.906480041012669,1.198849940872004,13.36016728047131,-7.4560524927519785
4.562104894653829,3.68035734842758,4.918468540421389,1.124289415944484,13.603039145919,-7.8811804793342155
4.598908468138105,3.81638773988677,4.929711434580834,1.045477611151142,13.796967858231415,-8.2101240206919
4.637072345536972,3.954357418469084,4.940166210692345,0.9633763709442229,13.923798478216074,-8.409473575196406
4.676615919721663,4.0935954032512445,4.949799974401787,0.8792816351922589,13.961393226581322,-8.439707070537546
4.717551873754176,4.233209335517058,4.95859279075371,0.7948845644868834,13.883799896317417,-8.25570411754929
4.759883967109347,4.372047334480232,4.966541636398579,0.7123275233113905,13.662137677703827,-7.8084081089689
4.803604440454149,4.50866871125727,4.973664911631692,0.6342434422217015,13.266516769027081,-7.048107734420179
4.848691127566721,4.641333878947541,4.98000734605391,0.5637623648774996,12.669236416686678,-5.929694354574614
4.895104466356197,4.768026243114408,4.985644969702685,0.5044654213317535,11.84925798210417,-4.419873255976279
4.942784728787341,4.886518822935449,4.990689623916002,0.46026668877199073,10.797481252331659,-2.5056009269938553
4.991649917016696,4.994493635458766,4.995292290803722,0.43521067950205217,9.521728100241221,-0.20208301147318722
5.041594853371284,5.089710916461178,4.999644397598742,0.4331898493873203,8.049804098542046,2.4421383159901637
5.092491962535895,5.170208957446599,5.003976296092616,0.4576112325472219,6.428965842682745,5.345562327124835
5.144194052110361,5.234498615873426,5.008552408418089,0.5110668558184702,4.720902584201488,8.400991308366507
5.196539038269095,5.281707641715442,5.013663076976274,0.5950767689021352,2.9928637057976526,11.48884222191222
5.2493561146862495,5.311636278773418,5.019613844665295,0.7099651911212574,1.3071642106989856,14.493269986350386
5.302472477473984,5.324707920880408,5.026713496576507,0.8548978909847613,-0.287944311947966,17.31666540529959
5.3557195566827875,5.321828477760928,5.035262475486355,1.0280645450377572,-1.7636359837248368,19.88885927702928
5.408937841460397,5.304192117923679,5.045543120936732,1.22695313780805,-3.111274535146086,22.16961914795387
5.4619797626396345,5.2730793725722185,5.057812652314812,1.4486493292875888,-4.339374598304159,24.145433464965006
5.5147105563653565,5.229685626589177,5.072299145607688,1.6901036639372389,-5.468463412894453,25.822983701423418
5.5670074126312485,5.175000992460232,5.08920018224706,1.948333500951473,-6.525559145602526,27.22181232212835
5.618757422555851,5.109745401004207,5.1086835172565745,2.2205516241727565,-7.539430642881639,28.367948472146484
5.669854876565894,5.03435109457539,5.130889033498302,2.5042311088942215,-8.537135563774694,29.28929592589165
5.7201983875116476,4.948979738937643,5.155931344587244,2.797124068153138,-9.541835346226279,30.012845006105117
5.769688184901024,4.8535613854753805,5.1839025852687755,3.097252518214189,-10.571630144861393,30.563366405600156
5.818223798755778,4.747845084026767,5.214875110450917,3.4028861822701906,-11.639090811354663,30.963116042729972
5.865702249596045,4.63145417591322,5.248903972273619,3.7125173426974905,-12.751200959014206,31.232107533706326
5.912016791355177,4.503942166323077,5.286029145700594,4.0248384180345536,-13.909490830853642,31.388594605872118
5.957056213018408,4.364847258014541,5.326277529880939,4.338724364093275,-15.110206545979864,31.44949217384344
6.000704685598554,4.213745192554743,5.369664773521872,4.653219285831709,-16.34439694556804,31.430526582675554
6.042842137524101,4.050301223099063,5.4161969663801885,4.967524551658465,-17.597812347503222,31.34593584933891
6.083345149755091,3.8743230996240308,5.465872211896773,5.280983910151853,-18.850497513229136,31.207540751334495
6.1220883807513315,3.6858181244917394,5.518682050998292,5.593059317665198,-20.075930209860132,31.022981598800534
6.158946561996249,3.485058822393138,5.574612644174944,5.903289133653204,-21.23951565249864,30.79287157145669
6.19379715022018,3.272663665868152,5.633645535511476,6.211217849367771,-22.296213381251853,30.506574378942464
6.226523786878862,3.049701532055633,5.695757714005153,6.516283593157196,-23.18708465631413,30.136316934756625
6.257020802199418,2.817830685492492,5.760920549936725,6.817646762504762,-23.834684210312343,29.62949732446978
6.285199109054343,2.5794838433893683,5.8290970175617725,7.11394173574946,-24.137630538342076,28.899544083626648
6.310993947488236,2.3381075380059477,5.900236434919267,7.402937176585727,-23.965621022901978,27.816863079373043
6.334375022868295,2.098451327776928,5.974265806685125,7.681105807379457,-23.157915919578414,26.203706545304616
6.355359536146064,1.866872168581144,6.05107686475892,7.943142872832503,-21.530993275799613,23.84039872527118
6.374028257831876,1.6515622358231479,6.130508293487245,8.181546860085215,-18.90380385710371,20.494173956042243
6.3905438801901076,1.4625241972521108,6.212323762088097,8.386488599645636,-15.14870040836151,15.981812932463429
6.405169122162628,1.3110371931684957,6.296188648084554,8.54630672897027,-10.266785693573278,10.265395960640994
6.418279494094313,1.2083693362327628,6.3816517153742565,8.64896068857668,-4.4637926948362425,3.5508568379151506
6.430363187456641,1.1637314092844004,6.468141322260023,8.684469256955833,1.823744092183421,-3.675844820443724
6.442000501549485,1.1819688502062347,6.5549860148295815,8.647710808751395,8.000711558407476,-10.738180678682491
6.453820190051547,1.2619759657903094,6.641463122917095,8.54032900196457,13.47680589742194,-16.973816228439834
6.46643994970945,1.3967440247645286,6.726866412936741,8.370590839680172,17.837649191145573,-21.94532622612313
6.4804073899570955,1.5751205166759843,6.8105723213335425,8.151137577418941,20.926702705291678,-25.532883268520163
6.496158595123855,1.7843875437289012,6.892083697107732,7.89580874473374,22.812421789394524,-27.880868434202604
6.514002470561144,2.0125117616228465,6.971041784555069,7.617000060391714,23.692558696547625,-29.27000090153101
6.534127588177372,2.2494373485883226,7.047211785158987,7.324300051376404,23.801611203233065,-30.000536850288743
6.5566219616632555,2.487453460620653,7.1204547856727505,7.024294682873516,23.353837936818564,-30.325324264438304
6.581496496269462,2.7209918399888386,7.190697732501485,6.721041440229133,22.521038118163332,-30.428319852827876
6.608706414669351,2.946202221170472,7.257908146903777,6.416758241700854,21.431465140507402,-30.429109561362974
6.638168436881056,3.1605168725755464,7.322075729320785,6.112467146087224,20.177544617795693,-30.397096491518734
6.669773605606811,3.362292318753503,7.383200400781657,5.808496181172036,18.825257168490467,-30.36644547330711
6.703396528794346,3.550544890438408,7.441285362593377,5.504831726438965,17.422180039662145,-30.348372930704095
6.73890197769873,3.7247666908350294,7.496333679857767,5.201347997131924,16.003430128747144,-30.340182517643708
6.776149644607081,3.884800992122501,7.5483471598290866,4.897946171955486,14.59568827761186,-30.33151105495073
6.814997654528306,4.03075787489862,7.597326621548642,4.594631061405979,13.219752873628911,-30.308475257298404
6.855305233277292,4.162955403634909,7.643272932162701,4.291546308832995,11.892064887214953,-30.256325290893265
6.896934787313641,4.281876052507059,7.6861883952510315,3.9889830559240624,10.625556590031147,-30.16105573496143
6.939753547838712,4.38813161840737,7.726078225810272,3.6873724985744483,9.430078398653436,-30.010285030034165
6.983634864022785,4.482432402393904,7.762951950796016,3.3872696482741067,8.312576569311087,-29.793611864240656
7.028459188046725,4.565558168087015,7.796824647278758,3.0893335296317,7.277132595315005,-29.502588375657233
7.074114769727595,4.638329494040165,7.8277179825750745,2.794307645875128,6.324930650777244,-29.13040692412879
7.120498064667997,4.701578800547938,7.855661059033825,2.50300357663384,5.454188925885188,-28.671371585156542
7.167513852673476,4.75612068980679,7.880691094800164,2.2162898607822745,4.660071709267447,-28.12021207928546
7.215075059571544,4.802721406899464,7.902853993407986,1.93508773998942,3.934590343476727,-27.471294012537204
7.263102273640539,4.842067310334231,7.922204870807881,1.660374799864048,3.2665027060366656,-26.71778505398376
7.311522946743881,4.874732337394598,7.9388086188065214,1.3931969493242102,2.6412337397935612,-25.850854096360862
7.360270270117827,4.901144674792534,7.952740588299764,1.1346884083606015,2.0408655564999987,-24.8590128859613
7.409281716865752,4.9215533303575345,7.96408747238337,0.8860982795009885,1.4442862055904195,-23.727759950449908
7.458497250169327,4.935996192413438,7.97294845517838,0.6488206799964894,0.8276400798709822,-22.439753735395424
7.5078572120934615,4.9442725932121485,7.979436661978345,0.42442314264253517,0.16528173186016484,-20.975814011527593
7.557299938025583,4.94592541053075,7.98368089340477,0.21466500252725923,-0.568523664519591,-19.317096072210145
7.60675919213089,4.940240173885554,7.985827543430043,0.021494041805157765,-1.3969289931243642,-17.448739452202265
7.656161593869745,4.92627088395431,7.986042483848094,-0.15299335271686487,-2.3367825149248134,-15.36507088351696
7.705424302709289,4.902903058805062,7.984512550320925,-0.3066440615520345,-3.394106403313003,-13.075949873201422
7.754453333297339,4.868961994771932,7.981446109705405,-0.4374035602840487,-4.55955981726745,-10.613077347637004
7.803142953245058,4.8233663965992575,7.977072074102565,-0.5435343337604187,-5.8052625375398845,-8.03424372443501
7.85137661721105,4.765313771223859,7.971636730764961,-0.6238767710047688,-7.084673662087038,-5.423059251285716
7.899029754923289,4.694467034602988,7.965397963054913,-0.6781073635176259,-8.336825091213058,-2.8823156422867817
7.945974425269319,4.611098783690858,7.958616889419737,-0.7069305199404937,-9.494888269884493,-0.521071457655091
7.992085413106228,4.516149900992013,7.951547584220332,-0.7121412345170446,-10.497204820491236,1.5617548812162658
8.037246912116148,4.411177852787101,7.944426171875162,-0.6965236857048819,-11.297550769421656,3.2925323666724884
8.081358690644018,4.298202345092884,7.937460935018113,-0.663598362038157,-11.87149931736376,4.632209819634343
8.124340714094947,4.179487351919247,7.930824951397732,-0.6172762638418136,-12.217367267953726,5.577536747187345
8.16613558761414,4.0573136792397095,7.924652188759313,-0.5615008963699402,-12.352392801430343,6.155168401218785
8.206708724406536,3.9337897512254063,7.919037179795613,-0.4999492123577523,-12.306262106094637,6.411778605592602
8.24604662191879,3.81072713016446,7.914037687672036,-0.43583142630182625,-12.114321231310207,6.403645207625817
8.284153893220434,3.689583917851358,7.909679373409018,-0.37179497422556806,-11.812087016610041,6.188127758324586
8.321049732398947,3.5714630476852576,7.905961423666763,-0.3099136966423222,-11.431684645937782,5.818009212682569
8.3567643628758,3.45714620122588,7.90286228670034,-0.25173360451549653,-11.000092624396178,5.338563019155923
8.39133582488806,3.347145274981918,7.900344950655184,-0.1983479743239373,-10.53872007018136,4.786664529842692
8.424807277637878,3.241758074280104,7.898361470911945,-0.15048132902551037,-10.06379040190994,4.191173558407586
8.457224858380679,3.1411201702610048,7.89685665762169,-0.1085695934414345,-9.587109459904548,3.5739564566502007
8.488636060083289,3.0452490756619595,7.895770961687275,-0.0728300288749325,-9.116939262737864,2.951121661161652
8.519088550839909,2.954079683034581,7.895042661398526,-0.043318812263315985,-8.658821926906635,2.3342237053447885
8.548629347670255,2.8674914637655147,7.894609473275893,-0.0199765752098681,-8.21628410468905,1.7313191135308204
8.57730426230791,2.785328622718624,7.894409707523795,-0.0026633840745598943,-7.7914036596442156,1.1478362375290998
8.605157548535097,2.707414586122182,7.894383073683049,0.008814978300731104,-7.385246816403048,0.5872631433729961
8.632231694396319,2.633562117958151,7.894471223466057,0.014687609734461066,-6.998195067985223,0.05167646201243655
8.658567315575901,2.563580167278299,7.894618099563401,0.015204374354585432,-6.6301836339306535,-0.4578602325557645
8.684203117248684,2.4972783309389928,7.894770143306947,0.010625772029027786,-6.280871660266152,-0.9410009060808964
8.709175900558074,2.434469614336331,7.894876401027237,0.0012157629682188215,-5.949761172040061,-1.3979005151102126
8.733520596701437,2.3749720026159307,7.89488855865692,-0.012763242182883305,-5.636278340357294,-1.829057980189144
8.757270316727597,2.3186092192123575,7.894760926235091,-0.031053821984774743,-5.339827500187845,-2.2352034414511626
8.78045640891972,2.265210944210479,7.894450388015243,-0.05340585639928637,-5.059825758265078,-2.6172181450961194
8.803108518361825,2.214612686627828,7.89391632945125,-0.07957803785024756,-4.795723978900892,-2.9760781998803223
8.825254645228103,2.1666554468388193,7.893120549072748,-0.10933881984905078,-4.547018366298586,-3.312815690578433
8.84692119969649,2.1211852631758332,7.892027160874258,-0.1424669767548351,-4.313255687395927,-3.628492343536954
8.868133052328249,2.078052706301874,7.890602491106709,-0.17875190019020465,-4.094034313462226,-3.92418221756658
8.888913579391268,2.0371123631672514,7.888814972104807,-0.21799372236587045,-3.88900262744743,-4.200960839871122
8.90928470302294,1.9982223368927772,7.886635034881149,-0.26000333076458165,-3.6978558876050847,-4.459898902805704
8.929266926391868,1.9612437780167262,7.884035001573503,-0.3046023197926387,-3.5203323097981447,-4.702059147165151
8.948879364172036,1.9260404549187449,7.880988978375576,-0.3516229112642902,-3.3562088960927894,-4.928495430589589
8.968139768721224,1.892478365957817,7.8774727492629335,-0.4009078655701861,-3.205297369719481,-5.140253252466126
8.987064552380803,1.8604253922606222,7.873463670607232,-0.45231039809484735,-3.067440457140499,-5.338371206748639
9.005668806303408,1.8297509876892173,7.868940566626284,-0.5056941101623338,-2.9425086729376297,-5.523882981442699
9.0239663161803,1.800325900959841,7.863883625524661,-0.5609329399767607,-2.8303977025194613,-5.697819632648199
9.041969575189897,1.7720219239346462,7.858274296124893,-0.6179111363032428,-2.731026434080933,-5.861211942478701
9.059689794429245,1.7447116595938368,7.852095184761861,-0.6765232557280298,-2.6443356597269965,-6.015092731342229
9.077136911025184,1.7182683029965669,7.8453299522045805,-0.7366741830414522,-2.570287442585088,-6.160499041233226
9.094319594055149,1.692565428570716,7.837963210374166,-0.7982791734537844,-2.508865129525738,-6.298474141512485
9.111245248340856,1.6674767772754586,7.829980418639629,-0.8612639148689093,-2.4600739759822305,-6.430069334644694
9.12792001611361,1.6428760375156364,7.82136777949094,-0.9255646082153562,-2.4239423390131054,-6.556345558195028
9.144348776488766,1.6186366141255053,7.812112133408786,-0.9911280637973066,-2.400523386225619,-6.678374792130991
9.160535142630021,1.594631380263249,7.802200852770813,-1.0579118117186164,-2.3898972607154847,-6.797241287779124
9.176481456432654,1.5707324076560942,7.791621734653627,-1.1258842245964076,-2.392173635118916,-6.914042636981347
9.192188780509214,1.546810671304905,7.780362892407663,-1.195024650966221,-2.4074945805791588,-7.029890697177983
9.207656887222264,1.5227357254991134,7.7684126458980005,-1.2653235579380009,-2.4360376682197686,-7.1459123802151145
9.222884244477255,1.4983753488169158,7.75575941031862,-1.336782681740152,-2.4780192108141557,-7.263250299356676
9.237867997965424,1.4735951567087742,7.7423915835012185,-1.4094151847337189,-2.5336975398262815,-7.383063249816091
9.252603949532512,1.4482581813105113,7.728297431653881,-1.4832458172318796,-2.6033761967684397,-7.50652647244032
9.267086531345617,1.4222244193428268,7.713464973481562,-1.5583110819562829,-2.6874068965471274,-7.634831617065411
9.281308775539046,1.3953503503773557,7.697881862661999,-1.634659398126937,-2.786192092543891,-7.769186280301829
9.295262279042818,1.3674884294519167,7.68153526868073,-1.7123512609299554,-2.900186936681138,-7.91081294052359
9.308937163337337,1.3384865600851052,7.664411756071431,-1.7914593903351912,-3.0299003803574576,-8.060947048623277
9.322322028938189,1.3081875562815306,7.646497162168079,-1.872068860821424,-3.1758951011861103,-8.220833954155992
9.335403904501003,1.2764286052696696,7.627776473559865,-1.9542772003629838,-3.3387858627494045,-8.391724249777983
9.3481681905537,1.2430407466421756,7.608233701556236,-2.0381944428607635,-3.5192358164114155,-8.57486699875178
9.360598598020122,1.2078483884780613,7.587851757127628,-2.123943112848281,-3.7179501314478713,-8.771500166524632
9.372677081904902,1.1706688871635826,7.566612325999145,-2.2116581145135275,-3.9356661877798578,-8.982837403290768
9.384383770776537,1.1313122252857841,7.54449574485401,-2.301486488546435,-4.173139379646889,-9.210050115056301
9.395696893029395,1.0895808314893152,7.5214808799685455,-2.393586989696998,-4.431123353993237,-9.454243511245496
9.40659270134429,1.045269597949383,7.497545010071575,-2.488129424809453,-4.71034324037176,-9.716425023459934
9.417045397323783,0.9981661655456653,7.47266371582348,-2.5852936750440527,-5.011460117942612,-9.997463150962943
9.42702705897924,0.9480515643662392,7.44681077907304,-2.685268306553682,-5.3350246115309865,-10.298034406332391
9.436507574622903,0.8947013182509294,7.419958096007504,-2.7882486506170063,-5.681417121013552,-10.618555619254575
9.445454587805411,0.8378871470407938,7.392075609501333,-2.894434206809552,-6.050771785285574,-10.959098429098738
9.453833459275819,0.7773794291879381,7.363131267433237,-3.0040251911005393,-6.442880898711562,-11.31928239738203
9.461607253567697,0.7129506202008224,7.333091015522232,-3.11721801507436,-6.857076193518575,-11.698142866323188
9.468736759769705,0.6443798582656367,7.301918835371488,-3.234199443737592,-7.292083270220037,-12.093969585284595
9.475180558352362,0.5714590255634363,7.269576840934112,-3.3551391395904377,-7.745845642444128,-12.504112383054025
