th1 (rad),w1 (rad/s),th2 (rad),w2 (rad/s)
3.6898804883313443,0.7751081122688275,5.716015789420651,-0.00644619093629436
3.6976315694540327,0.8431593639702344,5.715951327511288,0.07073489489577921
3.706063163093735,0.9112945313825785,5.716658676460246,0.14646575912422982
3.7151761084075607,0.9796071746215318,5.718123334051488,0.22063315506633963
3.724972180153776,1.0481866258531896,5.720329665602152,0.2931177329662425
3.735454046412308,1.117117548005867,5.723260842931814,0.36379343895067473
3.7466252218923666,1.1864795129133416,5.7268987773213205,0.43252694674991915
3.7584900170215,1.256346601104909,5.73122404678882,0.49917712468003517
3.771053483032549,1.3267870265545445,5.73621581803562,0.5635945412553202
3.784321353298094,1.3978627908926842,5.741851763448174,0.6256210137010844
3.798299981207021,1.469629372866053,5.748107973585184,0.6850892045365087
3.8129962749356814,1.5421354601980284,5.754958865630549,0.74182227225964
3.8284176295376615,1.61542273244598,5.762377088353145,0.7956335829480747
3.8445718568621214,1.6895257049612098,5.770333424182626,0.8463264902375516
3.8614671139117336,1.764471645615803,5.778796689085001,0.8936941915946731
3.8791118303678918,1.8402805775485465,5.787733631000948,0.9375196689865362
3.8975146361433772,1.9169653827738347,5.797108827690813,0.9775757218847032
3.9166842899711156,1.9945320230630244,5.80688458490966,1.0136250999269283
3.936629610201746,2.0729798960124763,5.81702083590893,1.0454207413882952
3.957359409161871,2.1523023456187023,5.827475043322813,1.0727061217631235
3.978882432618058,2.2324873479495015,5.838202104540444,1.0952157140989527
4.001207306097553,2.313518393593333,5.849154261681433,1.1126755591148527
4.024342490033486,2.3953755894561333,5.860281017272582,1.1248039384342645
4.048296245928047,2.478037003136134,5.871529056656925,1.1313121383233258
4.073076615959408,2.5614802735434488,5.882842178040159,1.1319052840103108
4.098691418694843,2.6456845116722776,5.894161230880262,1.126283215843111
4.125148263811566,2.730632515550574,5.905424063038693,1.1141413681106804
4.152454588967071,2.816313323510773,5.9165654767198,1.0951715992267188
4.180617722202179,2.9027251302413717,5.927517192712068,1.0690629080948557
4.209644973504592,2.9898785908744236,5.938207821793016,1.0355019558214957
4.239543759413337,3.0778005400217516,5.948562841351231,0.994173294523301
4.270321764813555,3.1665381556920495,5.958504574296464,0.9447591858238205
4.301987146370475,3.2561636030263346,5.967952166154703,0.8869388707954915
4.334548782400739,3.34677920053094,5.976821554862657,0.8203871306292552
4.368016574406048,3.43852316282837,5.98502542616895,0.7447719532504151
4.402401806034332,3.5315759898231844,5.992473145701454,0.6597510955015307
4.437717565932564,3.6261675935195843,5.999070656656469,0.5649673035081968
4.4739792418677595,3.72258528128708,6.004720329691551,0.4600419257954302
4.51120509468063,3.821182748441111,6.009320748949506,0.34456662559653883
4.549416922165041,3.9223902728611306,6.012766415205471,0.2180928728999491
4.588640824893653,4.026726347256973,6.0149473439344705,0.08011887819393745
4.628908088366223,4.1348110239697995,6.01574853271641,-0.06992637084611125
4.670256198605921,4.247381268861215,6.015049269007949,-0.23270227025488974
4.712730011294533,4.3653085971331125,6.0127222463054,-0.408979140692037
4.756383097265864,4.489619141310445,6.00863245489848,-0.5996640547944748
4.801279288678969,4.621515978476284,6.002635814350535,-0.8058292762255577
4.847494448463731,4.762402828677499,5.99457752158828,-1.0287414735603118
4.895118476750506,4.913906770214078,5.984290106852677,-1.2698876148272125
4.944257544452647,5.077894730928618,5.971591230704404,-1.5309891423393889
4.995036491761933,5.256472971565371,5.95628133928101,-1.8139879203536808
5.047601221477587,5.451948338715045,5.938141460077473,-2.1209723823174738
5.1021207048647375,5.666710831502972,5.916931736254298,-2.453984809986251
5.158787813179767,5.902962757301363,5.892391888154436,-2.8146020590398457
5.217817440752781,6.162162372163464,5.864245867564038,-3.2031012093211007
5.279439064474416,6.443965803256077,5.832214855470827,-3.6169041797547963
5.343878722506977,6.74436698010029,5.796045813673279,-4.047880576002274
5.41132239230798,7.052784259931526,5.755567007913257,-4.47816652054174
5.481850234907295,7.348412644402378,5.710785342707839,-4.87498118853013
5.555334361351319,7.597931130842989,5.662035530822538,-5.187453598352573
5.631313672659749,7.7595703972028405,5.6101609948390125,-5.352620710863657
5.7089093766317776,7.798593977322294,5.556634787730376,-5.317811626996099
5.786895316405,7.708705902649438,5.503456671460415,-5.071609775757935
5.863982375431495,7.519215532731384,5.452740573702836,-4.654592879538139
5.939174530758809,7.277526202180549,5.406194644907455,-4.134695809951944
6.011949792780614,7.025230055717451,5.364847686807935,-3.5729467455994723
6.082202093337789,6.787623100813026,5.32911821935194,-3.007962625402821
6.150078324345919,6.575758904886795,5.2990385930979125,-2.458362622317623
6.215835913394787,6.392057259374614,5.274454966874736,-1.9304970517829634
6.279756485988533,6.234701689855473,5.255149996356907,-1.4246551659058937
6.342103502887087,6.100151844166876,5.240903444697848,-0.9386883845530447
6.403105021328756,5.984366311561911,5.2315165608523175,-0.4698267008635981
6.462948684444375,5.883329517704962,5.226818293843682,-0.015499492559979289
6.521781979621425,5.793244817927381,5.226663298918082,0.4263374613155045
6.579714427800699,5.710581632221762,5.230926673531236,0.8571062807031733
6.636820244122917,5.6320669390230735,5.239497736338268,1.2776155944451713
6.693140913513147,5.5546624054245255,5.2522738922827195,1.688114921271248
6.748687537567393,5.475544852963826,5.269155041495432,2.0883690150789707
6.803442986097031,5.392096605573724,5.290038731646221,2.4777413515901445
6.8573639521527685,5.301906984115334,5.314816145162123,2.855282367065557
6.910383021993922,5.2027836716167375,5.343368968832778,3.2198204539519244
6.962410858710089,5.092771428958956,5.375567173372297,3.5700542695192774
7.013338572999679,4.970175044543385,5.41126771606749,3.904644704347124
7.0630403234451125,4.833583174551901,5.450314163110962,4.222304432297997
7.111376155190632,4.681889757568905,5.492537207433942,4.5218825981923665
7.158195052766321,4.514309920348244,5.5377560334158655,4.80244202782272
7.203338151969803,4.330387704842793,5.585780453694093,5.063326421587201
7.246642029018231,4.129993517979795,5.6364137179099645,5.304215325452582
7.287941964198029,3.9133099074099853,5.6894558711644905,5.5251652404176825
7.327075063272129,3.680805061014016,5.7447075235686675,5.726635994826096
7.3638831138822685,3.4331942650347402,5.801973883516928,5.909502408741232
7.3982150565326155,3.1713903719288297,5.8610689076043405,6.075052258139905
7.429928960251904,2.896445051784953,5.92181943018574,6.224972517846639
7.458893410769754,2.6094831581954114,5.984069155364206,6.361326735602773
7.484988242351708,2.311632873925322,6.047682422720234,6.48652707295483
7.5081045710909615,2.003954390488598,6.112547693449782,6.603304954561866
7.528144114995848,1.6873697488219732,6.1785807429954005,6.714684315599149
7.545017812484067,1.362596228929403,6.245727586151392,6.823961039387535
7.558643774773361,1.0300855274485834,6.313967196545267,6.934691196723043
7.568944630047847,0.6899712527011734,6.383314108512497,7.05068885766305
7.575844342574858,0.34202858826894383,6.453820997089128,7.176030959181036
7.579264628457548,-0.014346643407926463,6.525581306680938,7.315060771070964
7.579121162023468,-0.38012500907392555,6.598731914391648,7.472370523324794
7.575319911932729,-0.7565676005860913,6.673455619624896,7.652723225339042
7.567754235926868,-1.1450308684068984,6.749982851878286,7.860835534313003
7.556303927242799,-1.5465462666650969,6.828591207221416,8.100874664964918
7.540838464576148,-1.9609864681148201,6.909599953871066,8.37540667028336
7.521228599895,-2.385515353923312,6.993354020573899,8.68336959781249
7.497373446355767,-2.811936095215668,7.080187716552024,9.016517406642855
7.469254085403611,-3.2227703855819114,7.170352890618453,9.354057950040497
7.437026381547792,-3.5871246876697387,7.263893470118858,9.656863415068226
7.401155134671095,-3.860494883926905,7.360462104269541,9.866886004314347
7.362550185831826,-3.9959462647078476,7.459130964312684,9.921982472452582
7.322590723184748,-3.9687090263366813,7.55835078903721,9.789015218544037
7.28290363292138,-3.7963285731187613,7.65624094122265,9.490863993239234
7.244940347190193,-3.5297431849453638,7.751149581155043,9.093987430640647
7.209642915340739,-3.2234356777986584,7.8420894554614495,8.668202207816401
7.177408558562752,-2.9151312291786913,7.928771477539613,8.260115255238714
7.1482572462709655,-2.624038883630005,8.011372630092001,7.8916605237116215
7.122016857434666,-2.3571550174893936,8.090289235329118,7.56905620059644
7.098445307259772,-2.115221651666092,8.165979797335083,7.290892521421189
7.077293090743111,-1.8963241142840486,8.238888722549296,7.052858348056688
7.058329849600271,-1.697685985019064,8.309417306029863,6.850003784367923
7.04135298975008,-1.5164635373066577,8.377917343873541,6.677675626265297
7.026188354377013,-1.3500540257349454,8.444694100136195,6.531830024078712
7.012687814119664,-1.1961853982393447,8.510012400376981,6.4090789245518796
7.00072596013727,-1.0529149220344156,8.5741031896225,6.306634946859861
6.990196810916926,-0.9185945932016288,8.637169539091099,6.22222624674358
6.981010864984909,-0.7918285130334398,8.699391801558535,6.154010346291696
6.973092579854574,-0.6714325356190604,8.760931905021453,6.1004971472970375
6.966378254498384,-0.5563999085175122,8.821936876494423,6.060483399750344
6.960814255413209,-0.4458738479363571,8.882541710491926,6.03299774212181
6.956355516933845,-0.3391269308045514,8.942871687913145,6.01725433886324
6.9529642476258,-0.2355468923135311,9.003044231301777,6.012612893923778
6.950608778702664,-0.13462845069670565,9.063170360241015,6.018542881879782
6.949262494195697,-0.03597093939484319,9.123355789059813,6.034589985656888
6.948902784801748,0.060718286483317147,9.183701688916383,6.06034287985052
6.9495099676665815,0.1556145419085263,9.244305117714887,6.095398639392098
6.951066113085667,0.2487603841252717,9.305259104108808,6.139325213468748
6.95355371692692,0.34004387920944124,9.366652356243495,6.19161964471037
6.956954155719014,0.42917060061152995,9.4285685526906,6.251661126339231
6.961245861725129,0.5156299071005388,9.491085163953992,6.318658701907378
6.966402160796135,0.5986569585001726,9.554271750973065,6.391594579845447
6.9723887303811365,0.6771933571792127,9.61818769677152,6.469165822787492
6.9791606639529284,0.7498513252279237,9.682879354999395,6.549729697465937
6.986659177205207,0.8148888861608219,9.748376651974054,6.631261201817037
6.994808066066816,0.8702063012276846,9.814689263992225,6.711334875772613
7.003510129079093,0.913376288762401,9.88180261274995,6.787146098260825
7.012643891966716,0.9417210983698147,9.94967407373256,6.855588183337265
7.022061102950414,0.9524466893107928,10.018229955565932,6.91339869652711
7.031585569843522,0.942836544894544,10.087363942531203,6.957379575596942
7.041013935292468,0.9104945939517909,10.156937738287173,6.984680189040598
7.0501188812319855,0.8536101428470995,10.22678454017758,6.993112499647048
7.058654982660457,0.7712024210043763,10.29671566517405,6.981448724310951
7.0663670068705,0.6632950807951667,10.366530152417159,6.9496424937230366
7.0729999576784515,0.5309775659727893,10.43602657735439,6.8989216065606636
7.0783097333381795,0.37633166425260245,10.505015793419997,6.831725366747863
7.082073049980705,0.20223194336015132,10.573333047087475,6.751495286127797
7.084095369414307,0.01205740758184376,10.640847999948754,6.662361873799404
7.0842159434901255,-0.1906316751693484,10.707471618686748,6.568790124764531
7.082309626738432,-0.4023978430902121,10.773159519934394,6.475246742873537
7.0782856483075305,-0.620171448837417,10.83791198736313,6.385936266827379
7.072083933819156,-0.8414172139656321,10.901771350031403,6.304629763889003
7.0636697616795,-1.0642223914781073,10.964817647670293,6.234587591431057
7.053027537764719,-1.2873200960405191,11.027163523584603,6.178562509762952
7.040154336804314,-1.5100676851754216,11.088949148682232,6.1388625609272465
7.025053659952559,-1.732400591377635,11.150337774291504,6.117453054503113
7.007729654038783,-1.9547790891163075,11.211512304836535,6.116081048802404
6.988181863147619,-2.1781413312719877,11.27267311532456,6.136411442591243
6.966400449834899,-2.403872102240546,11.334037229750471,6.18016957998423
6.942361728812494,-2.633793866248422,11.395838925550313,6.249290342236002
6.9160237901500095,-2.870185040683058,11.458331828972673,6.346077862768319
6.887321939743179,-3.1158298295898788,11.521792607600355,6.473383315015218
6.856163641447281,-3.3741039338689154,11.586526440750507,6.63481062382373
6.822422602108592,-3.649100012786417,11.652874546988745,6.834960707115795
6.785931601980728,-3.9457936469364956,11.721224154059902,7.079721430773121
6.746473665511363,-4.270239278648713,11.792021368367633,7.3765958042893764
6.703771272724876,-4.629752618556654,11.865787326410526,7.735016721134761
6.65747374653931,-5.032947589942001,11.943137493621874,8.166476348663409
6.60714427063989,-5.48926959915578,12.024802257108508,8.683987588818994
6.5522515746483325,-6.007111942815057,12.111642132996698,9.299626994023225
6.492180455220182,-6.5883447450856565,12.20463840293693,10.017156370937538
6.4262970077693256,-7.214791306638657,12.304809966646305,10.813497991712147
6.354149094702939,-7.820861833249758,12.412944946563426,11.600901406373147
6.275940476370442,-8.259775675428509,12.528953960627158,12.179889448779344
6.193342719616157,-8.327283495095559,12.650752855114952,12.271613789373012
6.110069884665202,-7.9339542853491825,12.773468993008683,11.755775880041075
6.03073034181171,-7.246373660534633,12.891026751809093,10.863537115005418
5.958266605206363,-6.507245855611332,12.999662122959148,9.926359478912708
5.89319414665025,-5.840917263035819,13.098925717748275,9.110244565706859
5.834784974019892,-5.272038823557458,13.190028163405342,8.445046603536776
5.782064585784318,-4.789087191353353,13.27447862944071,7.912722673838041
5.734173713870785,-4.374005663141979,13.35360585617909,7.487628023575898
5.690433657239365,-4.010716307282638,13.42848213641485,7.1476934000547985
5.6503264941665385,-3.686522944105009,13.499959070415398,6.876010708788286
5.613461264725489,-3.3916956368389766,13.568719177503281,6.66005677549515
5.579544308357099,-3.1187804302125017,13.635319745258233,6.490614560435561
5.548356504054974,-2.8620107854891566,13.700225890862589,6.3608677739853405
5.5197363962000825,-2.6168753941560796,13.763834568602443,6.2657189018324795
5.493567642258522,-2.3798210437631635,13.826491757620767,6.201285212866626
5.46976943182089,-2.148059606228329,13.888504609749432,6.164518865492766
5.448288835758606,-1.9194538426344616,13.950149798404361,6.152907895640485
5.429094297332261,-1.6924636072863726,14.011678877360765,6.164227227320998
5.412169661259397,-1.4661387349885195,14.073321149633975,6.196319565577263
5.397508273909512,-1.2401467400837967,14.135284345289747,6.246895482815997
5.3851068065086745,-1.014822436243478,14.197753300117908,6.313351250813225
5.37495858214624,-0.7912229704752206,14.26088681262604,6.392612739606817
5.367046352441488,-0.5711663281758195,14.324812940022108,6.481023828658202
5.3613346891597295,-0.35722585035767906,14.389623178308689,6.5743066193939095
5.357762430656153,-0.15265078155150721,14.455366244502628,6.667624854451248
5.3562359228406375,0.03881250196311528,14.52204249304714,6.755776509749636
5.356624047860269,0.21320834604053684,14.589600258144637,6.833522249280099
5.358756131320674,0.36675133755315864,14.657935480637438,6.896023139364607
5.3624236446962055,0.49624687802871054,14.726895712031084,6.939321299472756
5.367386113476493,0.5994753702254862,14.796288925025811,6.960766746061886
5.3733808671787475,0.6754567529085432,14.86589659248643,6.959290340987433
5.380135434707833,0.7245353414812158,14.935489495896306,6.9354551342563395
5.387380788122646,0.7482712531537762,15.004844047238869,6.891277410860223
5.394863500654184,0.7491753934998318,15.073756821347471,6.829870193642904
5.402355254589182,0.7303591521611171,15.1420555232839,6.755000403708791
5.409658846110793,0.6951766663698082,15.209605527320988,6.670654557679864
5.416610612774491,0.6469202235366042,15.276312072897786,6.580682998613485
5.423079815009857,0.5886007402965757,15.342118902883922,6.488555893848338
5.428965822412823,0.5228182195412319,15.407004461822405,6.397231443897927
5.434194004608235,0.4517090477880587,15.470976776261384,6.309116210675509
5.4387110950861155,0.3769491360865094,15.534067938368139,6.226089723977671
5.4424805864469805,0.2997916604120911,15.596328835607915,6.149566794144697
5.445478503051102,0.22112199132436922,15.657824503549362,6.0805766820327785
5.447689722964346,0.1415174855675983,15.71863027036969,6.019845016879827
5.449104897820022,0.061304486936469185,15.778828720538488,5.967870226618904
5.449717942689387,-0.019391525045305003,15.838507422804676,5.924990585651418
5.449524027438934,-0.1006042684337243,15.897757328661191,5.891440820122535
5.448517984754597,-0.18249363488455195,15.956671736862416,5.867398856785107
5.446693048405751,-0.26532069444001183,16.01534572543027,5.853024125068799
5.444039841461351,-0.34942979265925705,16.073875966680955,5.848489133332975
5.440545543534759,-0.43523674908317966,16.132360858014284,5.854006064819137
5.436193176043927,-0.52322225253983,16.190900918662475,5.869850023441913
5.430960953518529,-0.6139296943916737,16.249599418896896,5.896380390299635
5.424821656574612,-0.7079668329643947,16.308563222799894,5.934061570548215
5.417741988244968,-0.8060108036370698,16.367903838505377,5.983484225983928
5.4096818802085975,-0.9088160434331333,16.427738680765216,6.045387880836719
5.400593719774267,-1.0172246367639481,16.488192559573584,6.120685501111965
5.390421473406627,-1.1321783259904288,16.549399414584702,6.210490171032202
5.379099690146722,-1.2547308140242208,16.611504316295022,6.316143118116649
5.36655238200648,-1.386057736242514,16.67466574747619,6.4392406921642715
5.3526918046440555,-1.527459283166711,16.73905815439783,6.581654786325636
5.337417211812388,-1.6803459846243505,16.80487470226109,6.74553532880682
5.320613751966145,-1.8461899657854555,16.872330055549156,6.933272586311449
5.302151852308291,-2.02640921261144,16.94166278141227,7.147377137146578
5.281887760182176,-2.222126513803848,17.013136552783735,7.390200089271348
5.259666495044137,-2.4337018052037664,17.087038553676447,7.663356769592656
5.2353294769921,-2.6598730554795154,17.16367212137237,7.9666277939655235
5.208730746437305,-2.896271616676005,17.243338399312027,8.296010954048256
5.179768030270544,-3.1330856967252765,17.32629850885251,8.64059660418875
5.148437173303292,-3.3519861071438988,17.412704474894397,8.97838805637172
5.114917312231853,-3.5236150942106863,17.502488355458116,9.272796428348778
5.079681161289746,-3.6092578685390984,17.595216319741603,9.474712832449145
5.043588582604355,-3.5716671507462494,17.689963448066095,9.53692374516928
5.007871911096892,-3.3941453352616335,17.785332685517787,9.439605402201721
4.973930457744276,-3.0933333327503836,17.879728739539804,9.207025047309463
4.942997124416772,-2.710388902696894,17.9717989900129,8.894899810790504
4.915893235389803,-2.2886807907143645,18.060747988120806,8.560102357706516
4.89300642748266,-1.8588284951352043,18.146349011697872,8.241083264669115
4.874418142531308,-1.4370117693086142,18.228759844344562,7.956407521125813
4.860048024838222,-1.0294887661805947,18.30832391955582,7.7113532417511
4.849753137176416,-0.637227148908408,18.38543745197333,7.5043071230096094
4.843380865687331,-0.25888515825699854,18.460480523203426,7.3307366953304145
4.840792014104761,0.10760811554300376,18.53378789015673,7.185205106409635
4.841868095260192,0.46430534493984094,18.605639941220826,7.062257918415617
4.84651114870959,0.8129224246948854,18.676262520404983,6.956750036063818
