th1 (rad),w1 (rad/s),th2 (rad),w2 (rad/s),a1 (rad/s^2),a2 (rad/s^2)
4.482836413620168,2.6285832011412635,6.059474065152029,-1.6076420118912413,10.821518503927551,-4.671991067944217
4.5091222456315805,2.736798386180539,6.043397645033117,-1.6543619225706836,11.067321950831584,-5.561705518063285
4.536490229493386,2.8474716056888547,6.026854025807411,-1.7099789777513164,11.367619697177963,-6.510594856393107
4.564964945550274,2.9611478026606344,6.009754236029897,-1.7750849263152475,11.729619195808466,-7.526624513427453
4.59457642357688,3.078443994618719,5.992003386766744,-1.850351171449522,12.161723883890208,-8.619246573234186
4.625360863523068,3.200061233457621,5.973499875052249,-1.9365436371818638,12.673707051322243,-9.799594752113078
4.657361475857644,3.3267983039708433,5.9541344386804305,-2.0345395847029946,13.276871909591804,-11.08064671796107
4.6906294588973525,3.4595670230667612,5.933789042833401,-2.1453460518826053,13.984156738430844,-12.477290975824475
4.72522512912802,3.5994085904510698,5.912335582314575,-2.27011896164085,14.810105165611146,-14.00617938412916
4.761219215032531,3.747509642107181,5.8896343926981665,-2.4101807554821417,15.770551064732878,-15.685145082332939
4.798694311453603,3.90521515275451,5.865532585143345,-2.567032206305471,16.88174054061615,-17.53178440009022
4.837746462981148,4.074032558160671,5.839862263080291,-2.7423500503063734,18.158387741539,-19.560480771194587
4.878486788562754,4.255616435576061,5.812438762577227,-2.937954858018319,19.609768230261796,-21.776592729134677
4.921042952918515,4.451714117878679,5.783059213997044,-3.155720785309666,21.232294541543343,-24.16559891392547
4.9655600940973015,4.664037063294113,5.751502006143947,-3.3973767744489205,22.99599197182114,-26.673551215437186
5.012200464730243,4.893996983012324,5.717528238399458,-3.6641122866032925,24.820941256914026,-29.173300298321784
5.061140434560366,5.142206395581464,5.680887115533425,-3.9558452895865104,26.538768754142737,-31.409613708173595
5.112562498516181,5.407594083122891,5.64132866263756,-4.269941426668247,27.836347579823503,-32.91934455652081
5.16663843934741,5.685957558921126,5.5986292483708775,-4.599134872233455,28.19146437847767,-32.94076009967086
5.223498014936621,5.9678722027059035,5.552637899648543,-4.928542473230163,26.847365738936595,-30.378868391348337
5.28317673696368,6.23634586009527,5.503352474916241,-5.232331157143646,22.942215907291164,-23.99145476558066
5.345540195564633,6.4657680191681814,5.4510291633448045,-5.472245704799453,15.94886625063644,-13.016152370144958
5.410197875756315,6.6252566816745455,5.3963067062968095,-5.602407228500902,6.376378646545335,1.8299688228897972
5.47645044257306,6.689020468139999,5.340282634011801,-5.584107540272004,-3.8844282761217976,17.853030540379223
5.5433406472544595,6.650176185378781,5.284441558609081,-5.405577234868212,-12.366603589706594,31.516500904963102
5.609842409108247,6.526510149481715,5.230385786260399,-5.090412225818581,-17.534217111919894,40.57928922247974
5.675107510603064,6.351167978362516,5.179481664002213,-4.684619333593784,-19.419981753427024,45.0171569684548
5.738619190386689,6.156968160828246,5.132635470666275,-4.234447763909237,-18.997172911327123,46.15330489158431
5.800188871994972,5.966996431714975,5.090290993027183,-3.7729147149933935,-17.323904456474526,45.453275547524605
5.859858836312122,5.7937573871502295,5.052561845877249,-3.318381959518147,-15.151617349256172,43.965022598356796
5.917796410183624,5.642241213657668,5.019378026282068,-2.878731733534579,-12.909623418836372,42.28835592902176
5.974218822320201,5.513144979469304,4.990590708946722,-2.455848174244361,-10.80888125575167,40.71541494602176
6.029350272114894,5.405056166911788,4.966032227204278,-2.0486940247841434,-8.937803091741351,39.3627864662768
6.083400833784012,5.315678135994374,4.9455452869564365,-1.6550661601213754,-7.323520676270025,38.25673584634208
6.136557615143955,5.242442929231673,4.928994625355223,-1.2724988016579546,-5.965625014705161,37.38058518152349
6.188982044436272,5.1827866790846215,4.916269637338644,-0.8986929498427196,-4.853252199242803,36.699093875729226
6.240809911227118,5.134254157092194,4.907282707840217,-0.5317020110854274,-3.9731480268741666,36.17038859253296
6.292152452798041,5.094522676823452,4.901965687729363,-0.16999812516009777,-3.3131040928750912,35.751555285369065
6.3430976795662755,5.061391635894701,4.900265706477762,0.18751742769359286,-2.8630939338394548,35.40115263298914
6.393711595925223,5.0327606965563065,4.902140880754698,0.5415289540234842,-2.615296934443738,35.080313774231755
6.444039202890786,5.006607727211869,4.907556170294932,0.8923320917658017,-2.563605561774847,34.7532639688326
6.494105280162905,4.980971671594121,4.91647949121259,1.2398647314541278,-2.7029145108258588,34.38764896892628
6.543914996878846,4.9539425264858625,4.928878138527132,1.5837412211433906,-3.0283451422693233,33.95484642257008
6.593454422143704,4.92365907506317,4.944715550738566,1.9232896853690913,-3.5344893338844043,33.43031775379407
6.642691012894336,4.888314181724326,4.963948447592257,2.257592862907032,-4.214724459844303,32.793998724659595
6.69157415471158,4.846166937125883,4.986524376221327,2.5855328501536277,-5.06063570748823,32.030697536118744
6.740035824082838,4.795560580051,5.012379704722863,2.905839825514815,-6.061573301686398,31.130457123222378
6.787991429883348,4.734944847034136,5.041438102978011,3.217144396747039,-7.204365617297722,30.088836680718327
6.83534087835369,4.662901190861159,5.073609546945482,3.5180327635542223,-8.473202614150457,28.907072608370008
6.881969890262301,4.578169164719654,5.108789874581024,3.8071034896379223,-9.84969700285059,27.592088354417935
6.927751581909497,4.4796721946911475,5.146860909477404,4.083024373182102,-11.313123195904675,26.15633400776187
6.972548303856409,4.366540962732101,5.187691153209225,4.34458771325972,-12.840826728365514,24.61744839142332
7.01621371348373,4.238132695448446,5.231137030341822,4.590762197173953,-14.408789625873425,22.997747874319995
7.058595040438215,4.094044799189711,5.2770446523135615,4.820739675917153,-15.992330135549164,21.32355679499415
7.099535488430112,3.9341214978342194,5.325252049072733,5.033975243867094,-17.566908221846774,19.624404403280693
7.138876703408454,3.7584524156157517,5.375591801511404,5.230219287899901,-19.109001339110236,17.93212285360873
7.176461227564611,3.5673624022246493,5.427893994390403,5.409540516435989,-20.5970087050079,16.279890073420614
7.212134851586858,3.3613923151745704,5.481989399554763,5.572339417170195,-22.012137597087097,14.701269795589466
7.245748774738604,3.1412709392036993,5.537712793726465,5.71935211512609,-23.339223432377104,13.22930759680421
7.277161484130641,2.9078787048799284,5.594906314877726,5.851645191094132,-24.567437930562388,11.895744956911004
7.3062402711794405,2.6622043255743044,5.653422766788667,5.970602640663242,-25.69084738339863,10.73041174631937
7.332862314435183,2.405295851740318,5.7131287931953,6.077906758126436,-26.708795887734013,9.760850323693395
7.356915272952587,2.1382078928629777,5.773907860776564,6.17551526136337,-27.626105057326008,9.012211636668882
7.3782973518812165,1.8619468422897176,5.835663013390198,6.265637377730059,-28.45309969414151,8.507446255381849
7.396916820304114,1.5774158453483025,5.898319387167498,6.350711840283878,-29.20548462846187,8.267792316456143
7.412690978757596,1.2853609990636838,5.961826505570337,6.433389763448439,-29.904107029275767,8.313538294164461
7.425544588748233,0.9863199287709261,6.0261604032048215,6.516525146390084,-30.574635457820214,8.665009184654856
7.435407788035942,0.6805735741927239,6.091325654668722,6.603175238236632,-31.24716403858365,9.343682688457381
7.442213523777869,0.3681019338068874,6.157357407051088,6.696612065121206,-31.95569439525391,10.373270147964693
7.445894543115938,0.04854498985434824,6.224323527702301,6.800344766600853,-32.73733521766982,11.780460206681102
7.446379993014482,-0.27882836232235,6.292326975368309,6.918149368667664,-33.63084245618377,13.594752808531917
7.443591709391258,-0.6151367868841877,6.361508469054986,7.054096896752983,-34.67371144448166,15.846276485566912
7.437440341522416,-0.9618739013290043,6.432049438022515,7.212559661608653,-35.8962564134015,18.559440714647803
7.427821602509126,-1.3208364654630194,6.504175034638601,7.398154068755131,-37.30967827506237,21.73830549119627
7.414613237854495,-1.693933248213643,6.578156575326153,7.615537123667094,-38.882593325693065,25.336020550497118
7.397673905372359,-2.082759181470574,6.6543119465628235,7.868897329172065,-40.496527260104536,29.19505478154376
7.376846313557653,-2.4877244540716195,6.733000919854544,8.160847876987503,-41.866456794177004,32.93844811564537
7.351969069016937,-2.9063890220133897,6.81460939862442,8.490232358143958,-42.41438313675002,35.79418363273578
7.322905178796803,-3.33053285338089,6.899511722205859,8.848174194471316,-41.11622045114793,36.37825742481838
7.289599850262994,-3.741695057892369,6.9879934641505725,9.2119567687195,-36.45967791089195,32.62345433608561
7.252182899684071,-4.106291837001288,7.080113031837768,9.538191312080356,-26.884625187864398,22.365608532534612
7.211119981314058,-4.3751380888799325,7.175494944958571,9.761847397405703,-12.122923252649127,5.167486278773451
7.167368600425259,-4.4963673214064235,7.2731134189326285,9.813522260193437,5.216979938849942,-15.514401762096522
7.1224049272111944,-4.444197522017924,7.371248641534563,9.658378242572471,20.28636893209046,-33.20597265375456
7.077962951991015,-4.241333832697019,7.467832423960288,9.326318516034926,29.525740717526023,-43.225483481639586
7.035549613664045,-3.946076425521759,7.561095609120637,8.89406368121853,32.88819487385363,-45.644604984435254
6.996088849408828,-3.6171944767832227,7.650036245932823,8.437617631374177,32.42476981917259,-43.29144074691446
6.959916904640996,-3.2929467785914968,7.734412422246565,8.004703223905032,30.1606469816317,-38.87153462607662
6.926987436855081,-2.9913403087751798,7.814459454485615,7.615987877644266,27.33873966891329,-33.9923974090612
6.897074033767328,-2.717952912086047,7.890619333262057,7.276063903553654,24.55366055535545,-29.38318667830203
6.869894504646468,-2.4724163065324927,7.963379972297593,6.982232036770633,22.03584192592875,-25.2941417964266
6.845170341581143,-2.2520578872732053,8.0332022926653,6.729290618806368,19.844559088479173,-21.759452255492437
6.822649762708411,-2.0536122963884136,8.100495198853363,6.511696096251443,17.9682546587664,-18.730233531937674
6.802113639744527,-1.8739297498007494,8.165612159815877,6.324393760932066,16.370803285351812,-16.133791716672622
6.783374342246519,-1.7102217169472314,8.228856097425197,6.16305584376534,15.011213535054768,-13.897552192750716
6.766272125077047,-1.5601095815966837,8.29048665586285,6.024080321837833,13.85124047000652,-11.95738494712144
6.75067102926108,-1.4215971768966185,8.350727459081229,5.904506472366619,12.857758371910425,-10.259460685839366
6.7364550574921145,-1.2930195931775141,8.409772523804895,5.801911865508226,12.002984222113605,-8.759653457831963
6.723524861560339,-1.172989750956378,8.467791642459977,5.714315330929906,11.263905236071556,-7.422187748711391
6.7117949640507755,-1.0603506985956626,8.524934795769276,5.640093453442792,10.621482788256287,-6.218211076486544
6.701191457064819,-0.9541358707130997,8.581335730303705,5.577911342677926,10.059859693521677,-5.1245376848117905
6.691650098357687,-0.8535372737778829,8.637114843730483,5.5266659658298085,9.565647974216239,-4.1226288117104275
6.683114725619909,-0.7578807940357205,8.69238150338878,5.485439677712704,9.1273115810939,-3.1978053857296
6.675535917679552,-0.6666076782247815,8.747235900165908,5.453461623855408,8.734634479780551,-2.338666041011896
6.668869840897304,-0.579261333426976,8.801770516404462,5.430074963445289,8.378257403582884,-1.5366790022744041
6.663077227563034,-0.4954787593911472,8.856071266038915,5.414708173422545,8.049266893080864,-0.7859183549863473
6.658122439969122,-0.4149860904603386,8.91021834777314,5.406848989872682,7.738824006507824,-0.08291802939139532
6.6539725790645186,-0.33759785039526036,8.964286837671867,5.406019809578768,7.437825849594856,0.5733820351011261
6.650596600560566,-0.26321959189931177,9.018347035767656,5.4117536299297795,7.136600563704123,1.1816249255070967
6.647964404641573,-0.19185358626227053,9.072464572066954,5.423569879184851,6.824645826447067,1.7379939774183701
6.64604586877895,-0.12360712799779987,9.126700270858802,5.440949818959035,6.490432487551934,2.2361809069862173
6.644809797498972,-0.05870280312228053,9.181109769048392,5.4633116280288965,6.121308510267919,2.667421170655388
6.644222769467749,0.0025102819803986542,9.235742885328682,5.48998583973545,5.703552806803842,3.0206688536067308
6.644247872287553,0.05954581004843707,9.290642743726035,5.520192528271517,5.222641150756916,3.2829982925599253
6.644843330388038,0.11177222155600623,9.34584466900875,5.553022511197116,4.663792200001641,3.440327161343927
6.645961052603598,0.15841014355602265,9.401374894120721,5.587425782810556,4.012853371380152,3.4785463639557737
6.647545154039158,0.19853867726982416,9.457249151948826,5.622211246450114,3.2575548058746486,3.38510399453484
6.649530540811857,0.23111422532857065,9.513471264413328,5.656062286395462,2.389096946307358,3.1510131842168954
6.651841683065142,0.25500519479164424,9.570031887277283,5.6875724182376315,1.4039415931559154,2.7731339766943046
6.654391735013059,0.2690446107232034,9.626907611459659,5.715303758004574,0.30555921632152117,2.2564312774015156
6.657082181120291,0.2721002028864186,9.684060649039704,5.737868070778589,-0.894222928559678,1.6157721597183137
6.6598031831491555,0.2631579736008218,9.74143932974749,5.7540257923757725,-2.174679167148438,0.8767563157659333
6.662434762885164,0.24141118192933744,9.798979587671248,5.762793355533431,-3.5068024329337835,0.075137359441461
6.664848874704457,0.2063431575999996,9.856607521226582,5.763544729127846,-4.855243239745389,-0.7453755627581158
6.666912306280458,0.15779072520254572,9.914242968517861,5.756090973500265,-6.181436057727678,-1.5367775942267015
6.6684902135324835,0.09597636462526893,9.971803878252864,5.7407231975579975,-7.447456912514946,-2.2513320209340053
6.669449977178736,0.021501795500119464,10.029211110228443,5.718209877348658,-8.61992926479374,-2.8461997802986216
6.669664995133737,-0.06469749714781793,10.08639320900193,5.6897478795456715,-9.673259638480337,-3.2872530389954027
6.669018020162259,-0.1614300935326213,10.143290687797386,5.656875349155717,-10.591660753471093,-3.5514100022189123
6.667403719226932,-0.2673467010673322,10.199859441288943,5.621361249133528,-11.36973940525282,-3.6272216136083113
6.664730252216259,-0.3810440951198604,10.256073053780279,5.585089032997445,-12.011767553402782,-3.513857539785084
6.66091981126506,-0.5011617706538882,10.311923944110253,5.549950457599594,-12.530005681476307,-3.218940670342859
6.655908193558521,-0.6264618274686513,10.36742344868625,5.517761050896165,-12.94255148065921,-2.755799449918867
6.649643575283835,-0.7558873422752435,10.42260105919521,5.490203056396976,-13.271153777312158,-2.140659830368917
6.642084701861083,-0.8885988800483651,10.47750308975918,5.468796458093287,-13.539312907550944,-1.3901483098699396
6.633198713060599,-1.0239920091238746,10.532191054340114,5.454894974994588,-13.770844520332869,-0.5192981770626193
6.62295879296936,-1.1617004543272031,10.58674000409006,5.449701993223962,-13.988958678862263,0.45990370631648564
6.611341788426088,-1.3015900411158259,10.6412370240223,5.454301030287127,-14.215821340124032,1.5394980447399993
6.59832588801493,-1.4437482545170661,10.695780034325173,5.469696010734527,-14.472522675036185,2.716186599079815
6.583888405469759,-1.588473481267428,10.750476994432518,5.496857876725325,-14.779367326484586,3.9917605425923974
6.568003670657085,-1.7362671545322739,10.805445573199771,5.536775482151248,-15.156413542677384,5.373461698143443
6.550640999111762,-1.8878312899590477,10.860813328021283,5.590510099132683,-15.624210522755535,6.874400632171934
6.531762686212171,-2.044073395186603,10.91671842901261,5.659254105454402,-16.204708552199953,8.514140547727148
6.511321952260305,-2.2061204807086026,10.973310970067153,5.744395510931674,-16.922339247212534,10.319543467396398
6.489260747453219,-2.3753438731807277,11.03075492517647,5.847590945605638,-17.805278567573843,12.32596348276122
6.465507308721412,-2.553396658856466,11.089230834632527,5.9708505804332495,-18.88690527665465,14.578851338305787
6.439973342132847,-2.7422657116230127,11.14893934043686,6.116639093816307,-20.20743484934966,17.13578123745513
6.412550685016616,-2.9443400601165095,11.210105731375023,6.287996906190858,-21.815603243829262,20.06876879657551
6.383107284415451,-3.162496092554802,11.272985700436932,6.488684594156613,-23.77000385236193,23.466391088771758
6.351482323489903,-3.4001961310784212,11.337872546378499,6.7233485050443305,-26.139032579981407,27.434354203656834
6.317480362179119,-3.6615864568782355,11.405106031428943,6.997692047080899,-28.996889479247532,32.091115750771195
6.280864497610337,-3.9515553516707107,11.475082951899752,7.3186032045886105,-32.40964529230046,37.55046357956404
6.24134894409363,-4.275651804593715,11.548268983945638,7.694107840384251,-36.397702543352864,43.872350839438106
6.198592426047693,-4.6396288300272435,11.625210062349481,8.132831348778632,-40.84466891772076,50.94058662354014
6.152196137747421,-5.048075519204451,11.706538375837267,8.642237215014033,-45.292164827823,58.183170042104315
6.101715382555376,-5.500997167482681,11.792960747987408,9.224068915435076,-48.523256908801095,63.998348897364295
6.046705410880549,-5.986229736570692,11.885201437141758,9.864052404408719,-47.8891729985582,64.81814240576395
5.986843113514842,-6.465121466556274,11.983841961185846,10.512233828466359,-38.86623123569659,54.47613033033814
5.922191898849279,-6.8537837789132405,12.08896429947051,11.05699513176974,-16.94039767385108,26.78469231673308
5.853654061060147,-7.023187755651751,12.199534250788206,11.324842054937072,15.712452942489636,-15.257085007858294
5.783422183503629,-6.866063226226855,12.312782671337576,11.17227120485849,45.84574348476637,-53.49348533435896
5.71476155124136,-6.407605791379191,12.424505383386162,10.6373363515149,61.109416945134825,-71.23518805240138
5.650685493327568,-5.796511621927842,12.53087874690131,9.924984470990886,62.53426034777817,-70.25809583679997
5.59272037710829,-5.171169018450061,12.63012859161122,9.222403512622886,57.54198641862669,-60.871384102956156
5.54100868692379,-4.595749154263794,12.722352626737448,8.613689671593324,51.19938807774981,-49.942652306682824
5.495051195381151,-4.083755273486296,12.808489523453382,8.114263148526495,45.48161859901047,-40.05397472569892
5.454213642646288,-3.628939087496191,12.889632154938647,7.713723401269506,40.860403836596745,-31.753060506875613
5.417924251771327,-3.220335049130224,12.966769388951343,7.39619279620075,37.2911904603231,-24.914543848311585
5.385720901280024,-2.8474231445269926,13.040731316913352,7.147047357717634,34.6012015580713,-19.263505686468342
5.357246669834754,-2.5014111289462795,13.112201790490529,6.95441230085295,32.61413148900759,-14.538252386442434
5.332232558545291,-2.1752698140562035,13.181745913499059,6.809029776988526,31.181632864006527,-10.528276456927024
5.310479860404729,-1.8634534854161382,13.249836211268944,6.703747012419256,30.18548856107557,-7.07440660871742
5.291845325550567,-1.5615985998053825,13.316873681393137,6.633002946332081,29.532071702302733,-4.0599016683635405
5.276229339552513,-1.266277882782355,13.383203710856458,6.592403929648446,29.14587311090704,-1.401151586100479
5.26356656072469,-0.9748191516732847,13.449127750152943,6.578392413787442,28.963950972681452,0.9598977983489774
5.2538183692079565,-0.6851796419464702,13.514911674290818,6.587991391770932,28.931614927132923,3.06147802495049
5.246966572788492,-0.3958634926751409,13.580791588208529,6.618606172020437,28.999240109449232,4.926291950825133
5.243007937861741,-0.10587109158064861,13.646977649928733,6.667869091528688,29.12004856900828,6.564836949519703
