th1 (rad),w1 (rad/s),th2 (rad),w2 (rad/s)
5.2467872958632205,1.3363809296185767,0.24312573277136884,2.979048630128219
5.260151105159406,1.4747721070937203,0.272916219072651,2.8986074529321426
5.274898826230343,1.6102825942386472,0.30190229360197246,2.8144818843012
5.29100165217273,1.7428340334559973,0.33004711244498447,2.7261341076193366
5.30842999250729,1.8723462677502112,0.35730845352117785,2.6330705406246877
5.327153455184792,1.9987437655179838,0.38363915892742473,2.5348427293172437
5.347140892839972,2.12196200595017,0.40898758622059717,2.4310481170860054
5.368360512899474,2.2419537624399917,0.4332980673914572,2.321330513985762
5.390780050523874,2.358695218230513,0.45651137253131485,2.205380090441244
5.41436700270618,2.4721918479417697,0.4785651734357273,2.0829327251109664
5.439088921185597,2.5824840015527717,0.49939450068683694,1.953768547857018
5.4649137612011245,2.689652134391147,0.5189321861654071,1.8177095355261792
5.491810282545036,2.7938216377821448,0.537109281520669,1.6746160403776633
5.519748498922858,2.89516723982895,0.5538554419244456,1.5243821583554265
5.548700171321147,2.993916963367829,0.5690992635079999,1.3669298769935412
5.578639340954825,3.0903556467721875,0.5827685622779353,1.2022019809179187
5.609542897422547,3.1848280503085333,0.5947905820871144,1.0301537377966774
5.641391177925633,3.2777415821495843,0.6050921194650812,0.8507434417830809
5.674168593747129,3.3695686778881813,0.6135995538829121,0.6639219601336905
5.70786428052601,3.4608488463551947,0.620238773484249,0.46962152120624334
5.742472768989562,3.552190338774115,0.6249349886963115,0.2677441149096702
5.777994672377303,3.6442712861113806,0.6276124298454082,0.058150077695434926
5.814437385238417,3.7378399468165195,0.6281939306223626,-0.15935225071402678
5.851815784706583,3.833713359970819,0.6266004081152223,-0.38501440773716533
5.890152918306291,3.932773121477001,0.6227502640378507,-0.6191510216811771
5.929480649521061,4.035956058294971,0.616558753821039,-0.8621348440298966
5.96984021010401,4.144236058887586,0.60793740538074,-1.1143779832299368
6.011282570692886,4.258590914905243,0.5967936255484406,-1.3762903936065762
6.053868479841939,4.379944304899513,0.5830307216123749,-1.6482015129245693
6.097667922890934,4.509067484804655,0.5665487064831292,-1.9302232357030376
6.142758597738981,4.646417457851542,0.5472464741260988,-2.222021649084816
6.189222772317496,4.791878851558278,0.5250262576352507,-2.5224518682913546
6.237141560833079,4.944368637812635,0.49980173895233715,-2.8289994981076156
6.286585247211205,5.101266235527223,0.471511743971261,-3.136977988806327
6.337597909566477,5.257670320398592,0.4401419640831977,-3.4384872302658533
6.390174612770463,5.405601632464459,0.4057570917805392,-3.7213068443222403
6.444230629095108,5.5335171109703625,0.3685440233373168,-3.9682461999506664
6.499565800204811,5.626843942747754,0.32886156133781014,-4.157957111349949
6.555834239632289,5.670384478582141,0.28728199022431067,-4.268411151180369
6.6125380844181105,5.652743980479778,0.244597878712507,-4.283245351186875
6.669065524222908,5.571100398351522,0.20176542520063823,-4.198577362573024
6.724776528206424,5.4331284070890975,0.15977965157490798,-4.025754703127169
6.7791078122773145,5.254250121688287,0.11952210454363629,-3.7874335556250713
6.8316503134941975,5.052068744932647,0.08164776898738557,-3.509614399916038
6.882171000943524,4.841628165722167,0.04655162498822519,-3.2148153398853276
6.9305872826007455,4.6333981567101565,0.014403471589371913,-2.9191089290332046
6.9769212641678475,4.433482952580553,-0.014787617700960133,-2.632337913883387
7.021256093693653,4.244759441415557,-0.041110996839794,-2.3596838601477543
7.063703688107808,4.0680561231113845,-0.06470783544127154,-2.1033217822916273
7.104384249338922,3.903041889467556,-0.08574105326418781,-1.863680466516392
7.143414668233598,3.7488024255780283,-0.10437785792935173,-1.6402678851943053
7.180902692489378,3.6041816844330534,-0.12078053678129477,-1.4321658732174163
7.216944509333709,3.4679709067295015,-0.13510219551346894,-1.2383081371114266
7.2516242184010045,3.339006235844483,-0.1474852768845832,-1.0576270023827583
7.285014280759449,3.2162142447297675,-0.1580615469084108,-0.8891243876669512
7.317176423206747,3.0986289758261227,-0.1669527907850803,-0.7319006238087267
7.348162712965008,2.9853940875970464,-0.17427179702316756,-0.5851607021633616
7.378016653840978,2.875757712017889,-0.18012340404480118,-0.4482090761236962
7.406774230961157,2.7690641637888946,-0.18460549480603813,-0.3204392066955415
7.4344648725990465,2.6647446820359426,-0.18780988687299355,-0.20132122161675373
7.461112319419406,2.56230829504214,-0.1898230990891611,-0.09038946486498338
7.486735402369827,2.461333303347752,-0.19072699373781093,0.012769175559116538
7.511348735403304,2.3614595600518395,-0.19059930198221978,0.10852576341341674
7.534963331003823,2.262381566045485,-0.1895140443480856,0.19721850022044457
7.557587146664278,2.1638423223847596,-0.18754185934588116,0.27916060719262104
7.579225569888125,2.065627852699662,-0.18475025327395495,0.35464697812495755
7.599881848415122,1.9675623033219944,-0.18120378349270538,0.42395970958634654
7.619557471448342,1.86950353536293,-0.17696418639684192,0.487372625645912
7.6382525068019715,1.7713391344772627,-0.1720904601403828,0.5451549147029994
7.655965898146744,1.6729827768486139,-0.1666389109933528,0.5975739910969993
7.67269572591523,1.5743709021252232,-0.1606631710823828,0.6448976869076729
7.688439434936482,1.4754596547370116,-0.15421419421330607,0.6873958711881333
7.703194031483853,1.3762220638980738,-0.14734023550142472,0.7253415855242731
7.716956252122833,1.2766454396175644,-0.140086819646182,0.7590117766195852
7.729722706519009,1.176728967339591,-0.13249670187998613,0.7886876987045173
7.7414899961924055,1.0764814876192774,-0.12460982489294097,0.8146550510207989
7.752254811068599,0.9759194497555261,-0.11646327438273298,0.8372039084584245
7.762014005566154,0.8750650297790273,-0.10809123529814874,0.8566284966449669
7.770764655863944,0.7739444038587078,-0.09952495033169907,0.873226856425778
7.778504099902531,0.6725861682389814,-0.09079268176744129,0.8873004367564656
7.785229961584921,0.5710198964237804,-0.08191967739987663,0.899153649585856
7.790940160549159,0.4692748236225777,-0.07292814090401807,0.9090934153685503
7.795632908785384,0.367378647581628,-0.06383720675033257,0.9174287234385637
7.7993066952612,0.26535643392760333,-0.05466291951594693,0.9244702276221483
7.8019602596004765,0.16322961311431486,-0.045418217239725445,0.9305298941857184
7.80359255573162,0.061015055029200266,-0.03611291829786826,0.9359207165146812
7.804202706281912,-0.0412757936902345,-0.026753711132721444,0.94095650880587
7.80378994834501,-0.14363772554884713,-0.017344146044662744,0.945951789529877
7.8023535710895215,-0.24607255814802284,-0.007884628149363974,0.9512217644748536
7.799892845508041,-0.3485899079658761,0.001627589495384562,0.9570824188111513
7.796406946428382,-0.4512079706364767,0.011198413683496075,0.9638507278031835
7.791894866722017,-0.553954327331573,0.020836920961527908,0.9718449965228371
7.786355323448701,-0.6568667978267828,0.03055537092675628,0.9813853401623364
7.779786655470433,-0.7599943618845051,0.040369224328379645,0.9927943182672174
7.772186711851588,-0.8633981717234502,0.050297167511051816,1.0063977383573532
7.763552730134354,-0.9671526795684383,0.06036114489462535,1.022525646891146
7.753881203338669,-1.0713469055526434,0.0705864013635368,1.041513528221645
7.743167734283142,-1.1760858724956333,0.08100153664575326,1.06370373488133
7.731406875558186,-1.2814922351389584,0.09163857399456656,1.0894471748767518
7.718591953206796,-1.387708131986963,0.10253304574333408,1.1191052831377926
7.704714871886926,-1.4948972874594983,0.11372409857471201,1.1530523039964744
7.689765899012332,-1.6032473897597586,0.12525462161467676,1.1916779082179842
7.673733425114734,-1.7129727642985855,0.1371714006968566,1.235390159541839
7.656603697471748,-1.8243173514458788,0.14952530229227498,1.28461882855566
7.63836052395729,-1.9375579772003158,0.16237149057783157,1.339819020728673
7.618984944185287,-2.0530078703508097,0.1757696807851183,1.401475032252027
7.598454865481778,-2.1710203207609053,0.18978443110763857,1.470104258874725
7.576744662274169,-2.2919922761771563,0.2044854736963858,1.546260838617632
7.553824739512398,-2.416367516822003,0.21994808208256214,1.6305384768536855
7.529661064344178,-2.5446387925403315,0.236253466851099,1.7235715314522306
7.5042146764187745,-2.6773479013795307,0.2534891821656213,1.8260328486208899
7.477441197404979,-2.815082046900932,0.2717495106518302,1.9386259178420617
7.44929037693597,-2.9584638082205537,0.2911357698302508,2.062067479658308
7.419705738853764,-3.1081305110375173,0.3117564446268339,2.197054519692965
7.388624433743389,-3.264696459959824,0.33372698982376353,2.3442062816374913
7.355977469143791,-3.4286881138219414,0.35716905264013843,2.503967159728631
7.321690588005572,-3.6004376893799694,0.38220872423742475,2.676449865932816
7.285686211111772,-3.7799151739354993,0.4089732228967529,2.861190570064734
7.247887059372417,-3.9664739999748417,0.4375851285974003,3.056781203722391
7.208222319372668,-4.158486597276248,0.4681529406346242,3.2603457998462586
7.166637453399906,-4.352863867528835,0.5007563986330867,3.4668534756277625
7.123108814724618,-4.544507591703491,0.5354249333893644,3.668339166385671
7.0776637388075825,-4.7258619606000964,0.5721083250532211,3.8532699325876147
7.030405119201582,-4.886910978465314,0.6106410243790972,4.006551088168983
6.981536009416929,-5.01611813259941,0.650706535260787,4.110878819995165
6.931374828090934,-5.102663388711744,0.6918153234607387,4.149945917263337
6.880348194203817,-5.139613299304729,0.7333147826333721,4.112987601485538
6.82895206121077,-5.126592009520655,0.7744446586482275,3.9986375218435954
6.777686141115564,-5.070205642196775,0.8144310338666635,3.8156072256413736
6.726984084693596,-4.981776587274479,0.8525871061230772,3.579537892749933
6.677166318820851,-4.873823902865867,0.8883824850505765,3.3080362183611975
6.628428079792193,-4.757225632416358,0.9214628472341885,3.0166324504078186
6.580855823468029,-4.639943093893485,0.9516291717382667,2.716924074345761
6.534456392529094,-4.5270228019291325,0.9787984124817243,2.4165253388264474
6.489186164509803,-4.421202550652921,1.0029636658699888,2.1198836546696165
6.444974139003274,-4.3236201271794,1.024162502416685,1.8292567556951687
6.40173793773148,-4.234399298270501,1.0424550699736366,1.545529196560843
6.359393944748775,-4.153064828510663,1.057910361939245,1.2687956051242757
6.317863296463669,-4.078811636253695,1.0705983179904877,0.9987423300185738
6.277075180101132,-4.010669549115336,1.0805857412906734,0.7348833151883827
6.236968484609979,-3.947599784194715,1.0879345744425573,0.47669943448542973
6.197492486768032,-3.888549191162566,1.0927015687874115,0.22371692841960755
6.158606994856406,-3.83247943425441,1.0949387380716076,-0.024451511437361323
6.120282200513862,-3.778381904425046,1.094694222957234,-0.26808821750452927
6.082498381469612,-3.725284936927555,1.0920133407821888,-0.5073655655401036
6.045245532100336,-3.672257245032654,1.0869396851267878,-0.7423491533669337
6.008522959650009,-3.6184098329909635,1.0795161935931186,-0.9730059654542059
5.972338861320099,-3.5628976413514417,1.0697861339385766,-1.1992156645945973
5.936709884906585,-3.5049215584374354,1.0577939772926306,-1.420783913700402
5.901660669322211,-3.4437310495312055,1.0435861381556266,-1.637457056780695
5.867223358826899,-3.3786274171699424,1.0272115675878197,-1.8489377133527598
5.833437084655199,-3.3089675567456265,1.0087221904542922,-2.0549009482963223
5.800347409087743,-3.2341679791130584,0.988173180971329,-2.25501072127169
5.768005729296612,-3.1537088175905894,0.9656230737586121,-2.448936328728158
5.736468641120706,-3.0671375099812246,0.9411337104713305,-2.63636854769489
5.705797266020894,-2.9740718409159856,0.9147700249943816,-2.8170351868772907
5.676056547611734,-2.8742020421692263,0.8865996731256087,-2.990715755041798
5.647314527190042,-2.767291675977264,0.8566925155751908,-3.157254973862832
5.619641610430269,-2.65317706654333,0.8251199658365624,-3.3165748945336606
5.5931098397648356,-2.5317650955194306,0.7919542168912258,-3.4686854249237546
5.5677921888096416,-2.4030292357307554,0.7572673626419882,-3.6136931359074684
5.543761896452334,-2.2670037608057823,0.7211304312829135,-3.7518082895409277
5.521091858844276,-2.123776133434237,0.6836123483875043,-3.8833501148750194
5.4998540975099335,-1.9734776382840944,0.6447788472387541,-4.008750445321432
5.480119321127092,-1.8162723839136787,0.6046913427855398,-4.1285559197717365
5.461956597287956,-1.6523448486918288,0.5634057835878225,-4.243429032420374
5.445433148801038,-1.481886187465738,0.5209714932636187,-4.354148386810656
5.430614286926381,-1.305079549397882,0.4774300093955121,-4.46160855995114
5.417563491432402,-1.1220846874591663,0.4328139237960007,-4.5668200019592575
5.40634264455781,-0.9330221763621196,0.3871457237764081,-4.670909370647632
5.397012422794189,-0.7379576164424654,0.3404366300699318,-4.775120605622883
5.389632846629764,-0.5368863174499564,0.29268542401370296,-4.880816844773378
5.384263983455265,-0.32971918071568573,0.24387725556596918,-4.98948291307336
5.380966791648108,-0.1162709173750347,0.19398242643523558,-5.102727459290916
5.379804082474357,0.1037475026663853,0.14295515184232643,-5.2222826925132875
5.380841557501021,0.3307289462244677,0.09073232491719356,-5.34999775988719
5.3841488469632655,0.5651572463771334,0.03723234731832166,-5.487818582991989
5.389800419427036,0.8075720097219021,-0.017645838511598226,-5.637741586577539
5.397876139524255,1.0584954346066229,-0.07402325437737362,-5.8017199264939
5.408461093870321,1.318295503686956,-0.13204045364231262,-5.981486824920197
5.421644048907191,1.5869451749194101,-0.1918553218915146,-6.178239765273972
5.437513500656385,1.8636181747290053,-0.25363771954425435,-6.392101995876697
5.456149682403675,2.146045218035907,-0.3175587395030213,-6.62125265496683
5.477610134584034,2.429563029569088,-0.38377126605268963,-6.860625326759957
5.501905764879725,2.705880764251077,-0.4523775193202892,-7.100197544081977
5.528964572522235,2.9618710750370845,-0.523379494761109,-7.323279532053322
5.558583283272606,3.179258229718719,-0.5966122900816422,-7.505990532716303
5.5903758655697935,3.336707474167139,-0.6716721954088052,-7.61999278667438
5.623742940311465,3.4155113027224466,-0.747872123275549,-7.640147186047095
5.657898053338689,3.4074580987758494,-0.8242735951360199,-7.5551750560627156
5.691972634326448,3.31975844912255,-0.8998253456966471,-7.374316903665145
5.725170218817674,3.1724013691059385,-0.9735685147332985,-7.1236919327364285
5.756894232508733,2.989773337916067,-1.0448054340606627,-6.834942315033104
5.786791965887894,2.7929581254704305,-1.1131548572109937,-6.534944614888346
5.814721547142598,2.596498345296817,-1.1785043033598772,-6.241647409667934
5.840686530595566,2.4088006465183787,-1.2409207774565565,-5.964806712775047
5.86477453706075,2.23391119676026,-1.3005688445843069,-5.708486680602835
5.887113649028353,2.07322908032237,-1.3576537113903353,-5.473400622225647
5.907845939831577,1.9267175254082134,-1.4123877176125919,-5.258530852727167
5.9271131150856595,1.7936442191493398,-1.4649730261398635,-5.0620960940690765
5.945049557277153,1.672996512496486,-1.5155939870805542,-4.882077857465516
5.961779522402118,1.563699476792156,-1.5644147656552092,-4.716484680988079
5.977416517170039,1.464722382867018,-1.61157961246509,-4.56347141614768
5.992063740998709,1.3751247908697881,-1.6572143266265669,-4.421382430606482
6.0058149889074075,1.2940712020563327,-1.7014281509326317,-4.288756942092389
6.01875570092797,1.2208301208557537,-1.7443157203535555,-4.164316929123219
6.030964002136528,1.1547659971285384,-1.7859588896447878,-4.0469482220787905
6.042511662107814,1.0953284637648337,-1.8264283718655756,-3.935680070076694
6.053464946745462,1.0420410906058633,-1.8657851725663426,-3.8296656721191367
6.063885357651521,0.994490704219628,-1.904081829287534,-3.728164706937709
6.073830264693717,0.9523177082250104,-1.941363476356911,-3.630528164621843
6.083353441775967,0.9152075248605812,-1.9776687580031294,-3.5361854334157954
6.0925055170245725,0.8828831258333697,-2.013030612337287,-3.4446334438713264
6.101334348282906,0.8550985533051061,-2.0474769467760003,-3.355427622073108
6.109885333815957,0.8316333090543759,-2.0810312229967316,-3.2681744020697496
6.118201666906501,0.8122874892127282,-2.1137129670174293,-3.1825250677657695
6.126324541798628,0.796877551670067,-2.145538217695087,-3.098170722387116
6.134293317315328,0.7852326170773078,-2.176519924918958,-3.0148382122923265
6.142145643486101,0.7771912192039556,-2.2066683070418813,-2.9322868581471666
6.14991755567814,0.772598434746068,-2.235991175623353,-2.85030586902709
6.157643540025601,0.7713033359078499,-2.264494234313624,-2.7687123335485784
6.16535657338468,0.7731567210214588,-2.2921813576491097,-2.6873496968176487
6.173088140594895,0.7780090891536628,-2.319054854617286,-2.6060866431927523
6.180868231486431,0.785708834180261,-2.345115721049214,-2.5248163130448047
6.188725319828234,0.7961006423012652,-2.370363884179662,-2.443455787340763
6.196686326251246,0.8090240845026873,-2.39479844205307,-2.3619457774673647
6.204776567096273,0.8243124020769123,-2.4184178998277437,-2.2802504597405133
6.213019691117042,0.8417914889713204,-2.441220404425149,-2.1983573950129824
6.221437606006755,0.8612790793703158,-2.4632039783752786,-2.1162774742086974
6.230050396800458,0.8825841524122997,-2.4843667531173654,-2.0340448309949792
6.238876238324581,0.9055065681548145,-2.504707201427315,-1.9517166636741687
6.247931304006129,0.9298369496736527,-2.524224368064057,-1.869372910235464
6.257229673502866,0.9553568253760573,-2.5429180971664116,-1.787115723816325
6.2667832417566265,0.9818390431275059,-2.560789254404575,-1.7050687009643104
6.2766016321879015,1.0090484636094463,-2.577839941414218,-1.6233758223352963
6.286692116823996,1.0367429345108035,-2.5940736996375713,-1.5422000749321287
6.297059546169105,1.0646745398933162,-2.6094957003868924,-1.4617217366145132
6.307706291568038,1.0925911106689101,-2.6241129177530373,-1.3821363171267789
6.318632202674727,1.1202379730173944,-2.637934280924305,-1.3036521648154127
6.329834582404901,1.1473599022896002,-2.650970802572459,-1.2264877638697564
6.341308181427797,1.1737032410900385,-2.663235680211157,-1.150868762489875
6.353045213838698,1.1990181324436189,-2.674744367836056,-1.0770247869457585
6.365035395163134,1.2230608128210685,-2.6855146157055136,-1.0051861091084047
6.377266003291345,1.2455959058363617,-2.6955664767965977,-0.935580244846409
6.389721962349708,1.266398656003546,-2.7049222792450616,-0.8684285669919309
6.402385948909743,1.28525704323404,-2.713606564914981,-0.8039430189210375
6.415238519342084,1.3019737227480381,-2.721645995104191,-0.7423230129830461
6.428258256569564,1.3163677415393158,-2.7290692252340216,-0.6837525921735013
6.441421933984958,1.3282759910626656,-2.7359067511557567,-0.6283979239895678
6.454704693895584,1.3375543658571438,-2.7421907303956523,-0.5764051829969968
6.4680802375541555,1.344078608739584,-2.747954782225622,-0.5278988641166753
6.481521023641552,1.347744834339662,-2.753233770866789,-0.4829805529453712
6.494998471984949,1.3484697334726494,-2.7580635763962427,-0.4417281635088391
6.508483169319676,1.3461904706161367,-2.762480858031331,-0.4041956385850363
6.521945074025837,1.3408642951510914,-2.7665228144171814,-0.370413093875196
6.5353537169773475,1.3324678937654972,-2.770226945355933,-0.34038737540731023
6.548678395915003,1.320996516365024,-2.7736308191100063,-0.31410298999832925
6.561888361078653,1.30646291098766,-2.7767718490099895,-0.29152336154951597
6.574952990188529,1.2888961046876612,-2.7796870826254847,-0.2725923613979704
6.587841951235406,1.2683400673315643,-2.7824130062394645,-0.25723605874484684
6.600525351908722,1.2448522939815614,-2.784985366826913,-0.2453646370684958
6.612973874848538,1.218502339299754,-2.787439013197598,-0.23687442408227924
6.625158898241535,1.1893703344610247,-2.789807757438421,-0.23164998585456592
