th1 (rad),w1 (rad/s),th2 (rad),w2 (rad/s)
6.180556789942071,2.224699208923968,2.138923874966532,-0.04647148615764095
6.202803782031311,2.190399381721479,2.138459160104955,-0.1891670245597683
6.224707775848526,2.1555845615186917,2.1365674898593574,-0.3310635202596829
6.246263621463713,2.1205826342150056,2.1332568546567607,-0.471953095048562
6.267469447805864,2.0857141889440385,2.1285373237062752,-0.611656136324876
6.288326589695304,2.051290768007712,2.1224207623430265,-0.7500236124794704
6.308839497375381,2.0176134906123044,2.114920526218232,-0.8869388996537549
6.329015632281504,1.9849720806010145,2.1060511372216943,-1.022319124514481
6.348865353087514,1.953644313502826,2.0958279459765494,-1.1561160516971085
6.3684017962225425,1.9238958846652343,2.084266785459578,-1.2883165656762559
6.387640755069195,1.8959806887807598,2.0713836198028157,-1.4189428141904326
6.406600561957003,1.8701414922665294,2.0571941916609116,-1.5480520935658386
6.425301976879668,1.8466109739580248,2.0417136707252532,-1.6757365653278837
6.443768086619248,1.8256131064285308,2.0249563050719743,-1.8021228986572182
6.462024217683534,1.8073648497243449,2.0069350760854023,-1.9273719350616596
6.4800978661807775,1.7920781310125944,1.9876613567347858,-2.0516784707316282
6.498018647490904,1.7799620870246582,1.9671445720274696,-2.175271249054517
6.5158182683611505,1.7712255505575802,1.9453918595369244,-2.2984132511837623
6.533530523866727,1.766079766825786,1.9224077270250868,-2.4214023666280102
6.551191321534985,1.7647413290711333,1.8981937033588068,-2.5445725183542702
6.568838734825696,1.7674353241213032,1.872747978175264,-2.6682953070488837
6.5865130880669085,1.774398675528477,1.8460650251047752,-2.792982225141897
6.604257074822193,1.7858836615468987,1.8181352028533562,-2.9190874696854316
6.622115911437662,1.802161562960012,1.7889443281565018,-3.0471113486081065
6.640137527067262,1.82352635452178,1.7584732146704207,-3.1776042180777204
6.658372790612479,1.8502982822865557,1.7266971724896436,-3.3111707948369196
6.676875773435345,1.8828270495311266,1.6935854645412745,-3.4484745325218995
6.6957040439306565,1.9214941380071417,1.6591007192160554,-3.5902414968146332
6.714918985310728,1.9667134740599825,1.623198304247909,-3.73726275967785
6.734586120051328,2.0189291401345093,1.5858256766511305,-3.8903936610122547
6.754775411452673,2.0786080216135097,1.546921740041008,-4.05054720523467
6.7755614916688085,2.146223999835286,1.5064162679886612,-4.218677138201698
6.797023731667162,2.222228310318091,1.4642294966066443,-4.395743544043145
6.819246014770343,2.306997649426666,1.4202720611662127,-4.582649641884179
6.842315991264609,2.4007471524959825,1.374445564747371,-4.780132297985945
6.866323462789569,2.503389236511669,1.3266442417675115,-4.988580212342182
6.891357355154685,2.6143119530717236,1.2767584396440896,-5.207743331310783
6.9175004746854025,2.732044493874664,1.2246810063309819,-5.436288188818335
6.944820919624149,2.8537805090025388,1.1703181244427985,-5.671157030224594
6.973358724714175,2.9747597860363895,1.1136065541405524,-5.906728251642655
7.003106322574539,3.08759808507652,1.054539271624126,-6.133896856399043
7.033982303425304,3.1818411485113116,0.9932003030601355,-6.339448796281761
7.065800714910417,3.244287886125844,0.9298058150973179,-6.50647359882449
7.0982435937716755,3.260781170736451,0.8647410791090729,-6.616772422965051
7.13085140547904,3.219736151246625,0.7985733548794225,-6.655629371224687
7.163048766991507,3.1163361383595896,0.7320170611671756,-6.617470099522792
7.194212128375103,2.9549193633475244,0.6658423601719476,-6.509008746306931
7.223761322008578,2.7475943059028247,0.6007522727088783,-6.34722643585399
7.251237265067606,2.509875263964331,0.5372800083503384,-6.153334212080357
7.276336017707249,2.256209684799577,0.4757466662295348,-5.946694237600527
7.298898114555245,1.9975127166355038,0.41627972385352957,-5.741564513614975
7.3188732417216,1.7407997630934255,0.3588640787173798,-5.546724493502938
7.336281239352534,1.48994385182918,0.3033968337823504,-5.36660453471549
7.3511806778708255,1.246686038152432,0.24973078843519547,-5.202717415426015
7.36364753825235,1.011482341411852,0.1977036142809353,-5.054833054192579
7.3737623616664685,0.7840923587118406,0.14715528373900952,-4.92178091590288
7.381603285253587,0.5639482512176119,0.09793747457998073,-4.801943610083934
7.3872427677657635,0.35037078053481974,0.049918038479141384,-4.69353909595529
7.390746475571111,0.1426887230172236,0.0029826475195884813,-4.594771680845925
7.392173362801284,-0.05969944114120315,-0.04296506928887077,-4.503906408519378
7.391576368389872,-0.2572970966363143,-0.08800413337406454,-4.419300826319063
7.389003397423509,-0.4504997035100967,-0.13219714163725516,-4.3394142589484295
7.384498400388408,-0.6395952038583044,-0.17559128422673945,-4.262806126854515
7.378102448349825,-0.8247698719451743,-0.2182193454952846,-4.1881297476971255
7.369854749630373,-1.0061170039412821,-0.2601006429722559,-4.114125103692076
7.35979357959096,-1.1836470675594843,-0.30124189400917667,-4.039612367656985
7.347957108915365,-1.35729861253379,-0.34163801768574653,-3.9634870211688145
7.334384122790027,-1.5269496076253997,-0.3812728878974347,-3.8847168544933397
7.319114626713773,-1.6924290520840273,-0.4201200564423681,-3.8023408284538545
7.302190336192933,-1.8535287871888986,-0.45814346472690665,-3.715469600244383
7.283655048321044,-2.0100154524137483,-0.49529816072935046,-3.623287410899165
7.263554893796906,-2.161642518172293,-0.5315310348383421,-3.5250549703411007
7.241938468615183,-2.3081622996429645,-0.5667815845417531,-3.420112940136121
7.218856845618753,-2.4493378243185093,-0.6009827139431143,-3.307885596094672
7.1943634673755685,-2.5849543964878747,-0.634061569904061,-3.1878842490280697
7.16851392341069,-2.7148306793599772,-0.6659404123943418,-3.059710010927118
7.14136561661709,-2.838829102973136,-0.696537512503613,-2.9230555152147732
7.112977325587359,-2.9568654052663317,-0.7257680676557607,-2.777705233391176
7.083408671534696,-3.0689171256847354,-0.7535451199896726,-2.623534075977437
7.052719500277848,-3.1750308956432893,-0.779780460749447,-2.4605040223399604
7.020969191321416,-3.275328407563591,-0.8043855009728466,-2.2886585902863303
6.98821590724578,-3.370010992839594,-0.8272720868757099,-2.108115030120175
6.954515797317384,-3.4593627971100744,-0.8483532371769116,-1.9190542062775586
6.919922169346283,-3.543752606060375,-0.8675437792396872,-1.7217082092736473
6.884484643285679,-3.623634443360193,-0.8847608613324236,-1.5163458175971865
6.848248298852077,-3.6995471302240994,-0.8999243195083955,-1.3032559995517334
6.811252827549836,-3.772113058579796,-0.9129568795039128,-1.0827297057171592
6.773531696964039,-3.8420364810655143,-0.9237841765610844,-0.8550402523166374
6.735111332153384,-3.9101016537621773,-0.9323345790842508,-0.6204226362484611
6.696010315615762,-3.977171172106366,-0.9385388054467354,-0.3790521613439155
6.656238603894699,-4.044184803141055,-0.9423293270601746,-0.13102280889686188
6.615796755863288,-4.11215901699152,-0.9436395551491432,0.12367411584437962
6.574675165693373,-4.182187222531935,-0.9424028139906995,0.38517033259606137
6.532853293468054,-4.255440357895097,-0.9385511106647388,0.6537388164382687
6.490298889889103,-4.333166874989946,-0.9320137225003562,0.9298080708800958
6.446967221139204,-4.416690115668209,-0.9227156417915552,1.2139692873226635
6.402800319982521,-4.507399311896756,-0.9105759489183286,1.5069709033056675
6.3577263268635535,-4.606727463362641,-0.8955062398852719,1.8096910337241043
6.311659052229927,-4.7161043631371395,-0.8774093295480309,2.1230713964116243
6.264498008598555,-4.836864858253833,-0.8561786155839146,2.4479850185566567
6.216129360016017,-4.970079462052857,-0.8316987653983481,2.7849919995144594
6.1664285653954884,-5.116255273390292,-0.8038488454032034,3.133911008184083
6.115266012661586,-5.27483087544617,-0.7725097353213626,3.4931006275280034
6.062517703907124,-5.443369821326898,-0.7375787290460826,3.8583188364155245
6.008084005693855,-5.6163791379452395,-0.6989955406819274,4.221061238061946
5.951920214314403,-5.783830229606519,-0.6567849283013079,4.566493376311921
5.894081912018338,-5.92989082752503,-0.6111199945381887,4.871701944081505
5.8347830037430874,-6.033168863017483,-0.5624029750973736,5.106105264148052
5.774451315112913,-6.070426942397176,-0.511341922455893,5.236782545444276
5.713747045688941,-6.024593303632619,-0.4589740970014503,5.239866186293486
5.653501112652615,-5.893625909380133,-0.40657543513851546,5.1131015585261235
5.594564853558813,-5.6930229756199235,-0.35544441955325423,4.879371291454476
5.537634623802614,-5.448790166704924,-0.30665070663870947,4.5766766295522645
5.483146722135564,-5.186717975253641,-0.26088394034318685,4.242863776165304
5.431279542383028,-4.925665145912561,-0.2184553025815338,3.90600273656515
5.382022890923903,-4.676519778287414,-0.1793952752158823,3.5828178988062707
5.3352576931410285,-4.44413843085735,-0.1435670962278196,3.2813732290384356
5.290816308832455,-4.229704612068696,-0.11075336393743525,3.004390094125983
5.248519262711768,-4.0324835261341345,-0.08070946299617542,2.751735596136557
5.208194427450427,-3.8508897198968146,-0.053192107034809845,2.5219496725478714
5.169685530251459,-3.6830655688279306,-0.027972610309331132,2.313082472593437
5.13285487456318,-3.5271673745146503,-0.004841785583396763,2.1231163870934773
5.0975832008180335,-3.3814919116005777,0.01638937828753801,1.9501593105548756
5.0637682817020275,-3.2445210888869394,0.035890971393086765,1.792518922605895
5.031323070813158,-3.114927003152899,0.053816160619145716,1.6487182059496868
5.00017380078163,-2.991559419186768,0.07030334267864258,1.5174839029340133
4.970258206589762,-2.8734267505388744,0.08547818170798271,1.3977240842183585
4.941523939084373,-2.7596758666815195,0.0994554225501663,1.2885027952893464
4.9139271804175575,-2.6495731052103233,0.11234045050305977,1.1890154951124645
4.8874314493654545,-2.542487393773019,0.12423060545418442,1.098566841889129
4.862006575427724,-2.4378756758098694,0.13521627387307572,1.0165513136101128
4.837627818669626,-2.3352705137781347,0.14538178700917684,0.9424366474957357
4.814275113531845,-2.234269618841874,0.1548061534841342,0.8757498655509286
4.791932417343426,-2.13452702639473,0.1635636521396435,0.816065579009644
4.770587147079478,-2.0357456506348557,0.17172430792973994,0.7629962577281859
4.750229690573129,-1.9376709826655518,0.1793542705070218,0.7161841734685195
4.730852980746474,-1.8400857324566164,0.186516112241707,0.6752947594570132
4.712452123421908,-1.7428052495145372,0.19326905983627712,0.6400111635187696
4.695024070926762,-1.6456735877991497,0.19966917147146482,0.6100298044900352
4.678567335048771,-1.5485601065421433,0.20576946951636518,0.585056770083957
4.66308173398335,-1.4513565202391416,0.21162003721720477,0.5648049187423102
4.648568168780958,-1.3539743286256918,0.21726808640462786,0.548991568601141
4.635028425494701,-1.2563425714527048,0.22275800209063926,0.5373366740733255
4.622464999780174,-1.1584058639019161,0.2281313688313725,0.5295614052658603
4.610880941141155,-1.0601226770390462,0.2334269828840311,0.5253870580073132
4.600279714370765,-0.9614638342442834,0.23868085346410423,0.5245342330810463
4.590665076028322,-0.862411199475923,0.2439261957949147,0.526722232676958
4.582040964033562,-0.7629565368427457,0.24919341812168427,0.5316686303465423
4.574411398665135,-0.6631005235588208,0.2545101044251497,0.5390889780674837
4.567780393429547,-0.562851900157698,0.2599009942058245,0.5486966205392549
4.56215187442797,-0.46222674303658773,0.2653879604112171,0.5602025926468626
4.557529606997604,-0.3612478451346226,0.27098998633768573,0.5733155812249007
4.553917128546257,-0.25994419094183485,0.2767231421499347,0.5877419368876802
4.551317686636839,-0.15835051218092128,0.2826005615188115,0.6031857258088378
4.54973418151503,-0.05650691047520086,0.2886324187768999,0.6193488149712085
4.5491691124102775,0.04554146683038257,0.294825906926612,0.6359309875933125
4.549624527078581,0.14774471174958445,0.3011852168025451,0.6526300881949737
4.551101974196077,0.25004841595321475,0.30771151768449484,0.6691421991080051
4.553602458355609,0.35239392087864196,0.31440293967557487,0.6851618521790042
4.557126397564396,0.4547185725108504,0.3212545581973649,0.700382280953474
4.561673583289505,0.5569559959317882,0.3282583810068997,0.7144957197688865
4.567243143248822,0.659036404917632,0.33540333820458856,0.7271937569047902
4.573833507297999,0.7608869619682193,0.3426752757736365,0.7381677492162425
4.581442376917681,0.8624322041509644,0.3500569532657989,0.747109305477529
4.59006669895919,0.9635945500006735,0.35752804632057417,0.7537108449404651
4.599702644459197,1.064294902400437,0.3650651547699788,0.7576662363099699
4.610345593483201,1.1644533618378026,0.3726418171330785,0.7586715203957408
4.621990127101579,1.2639900636442756,0.3802285323370359,0.7564257170450879
4.634630027738022,1.3628261517465128,0.3877927895074868,0.7506317135309374
4.648258289255487,1.4608849000526596,0.39529910664279616,0.7409972272999988
4.662867138256014,1.5580929908478156,0.40270907891579616,0.7272358308325796
4.678448068164492,1.6543819574790235,0.40998143722412195,0.7090680203040449
4.694991887739283,1.7496897962009565,0.4170721174271624,0.6862223027771566
4.712488785701292,1.8439627493945094,0.42393434045493394,0.6584362688443046
4.730928413195237,1.9371572595744868,0.430518703143377,0.6254576090771019
4.750299985790981,2.0292420908381303,0.436773279234148,0.5870450234783737
4.770592406699363,2.120200611905195,0.4426437294689317,0.5429689635698817
4.7917944128184145,2.2100332329626418,0.44807341910463055,0.49301213703289426
4.8138947451480405,2.2987599875219384,0.4530035404749595,0.4369696952188287
4.83688234502326,2.3864232508591985,0.4573732374271478,0.37464901463363787
4.8607465775318515,2.4730905888294408,0.4611197275734842,0.3058689749040011
4.8854774834201455,2.5588577354604185,0.4641784173225242,0.23045862790180263
4.91106606077475,2.6438517052970756,0.4664830036015422,0.14825514564257453
4.9375045778277205,2.728234057545144,0.46796555505796794,0.05910092809516006
4.964786918403172,2.8122043441899063,0.46855656433891957,-0.03716025428963261
4.992908961845071,2.8960037939335224,0.46818496179602326,-0.14068821541565874
5.021868999784406,2.9799193084124593,0.4667780796418667,-0.2516525462720999
5.05166819286853,3.064287877013811,0.46426155417914566,-0.3702401972962329
5.082311071638668,3.149501551794102,0.4605591522061833,-0.49666461736650724
5.113806087156609,3.2360131642523764,0.4555925060325183,-0.6311766367899765
5.1461662187991335,3.324343010094272,0.4492807396646185,-0.7740773073719732
5.1794096489000765,3.415086774437484,0.4415399665908988,-0.9257329421445111
5.213560516644451,3.508925013453231,0.43228263716945364,-1.0865926252495473
5.248649766778983,3.606634539702669,0.42141671091695815,-1.2572084762887275
5.284716112176009,3.7091020586850645,0.40884462615407086,-1.4382589270560509
5.32180713276286,3.8173403371205232,0.39446203688351034,-1.6305751504783284
5.359980536134065,3.9325069798690917,0.37815628537872703,-1.8351704729218832
5.399305605932756,4.055925420307859,0.3598045806495082,-2.053271914321124
5.439864860135835,4.189106739146123,0.33927186150629696,-2.2863515826780634
5.481755927527296,4.333768949627133,0.3164083456795163,-2.5361528377171503
5.5250936170235665,4.491846544307997,0.29104681730234483,-2.8047006962015457
5.570012082466646,4.665475765059858,0.2629998103403294,-3.0942755960177717
5.616666840117245,4.856927298708426,0.23205705438015167,-3.4073102521180014
5.665236113104329,5.06843287376156,0.19798395185897166,-3.746133865446388
5.715920441841944,5.301807794262524,0.16052261320450778,-4.112425566314766
5.7689385197845695,5.557699152340271,0.11939835754136012,-4.506137685141291
5.824515511307972,5.834191796781022,0.07433698068994721,-4.923513056719861
5.8828574292757825,6.124438835285954,0.025101850122748598,-5.353730905215397
5.944101817628642,6.41318038590238,-0.028435458929405376,-5.773997387026079
6.0082336214876655,6.673052522750256,-0.08617543279966616,-6.144365627579787
6.074964146715168,6.864176296923161,-0.14761908907546403,-6.407222251341108
6.143605909684399,6.943362594719942,-0.2116913115888751,-6.500385349514206
6.213039535631598,6.885305703142712,-0.27669516508401715,-6.3871529603086
6.281892592663025,6.701737497079819,-0.34056669468710316,-6.083490160807468
6.348909967633824,6.4363931204834115,-0.40140159629517785,-5.65106468889612
6.413273898838658,6.139219323475464,-0.45791224318413903,-5.160883095410815
6.474666092073413,5.846207410142437,-0.5095210741382472,-4.6646926454923925
6.533128166174837,5.575984589229516,-0.5561680005931712,-4.189945524766294
6.588888012067132,5.335106428674861,-0.5980674558408341,-3.7470883970499456
6.6422390763538806,5.1237718625497335,-0.6355383398113336,-3.3375405990827343
6.693476794979378,4.9394557303568485,-0.6689137458021609,-2.9588016356274514
6.742871352282946,4.778767210850192,-0.6985017621584354,-2.6070882480776416
6.790659024391448,4.63827949268829,-0.7245726446392118,-2.278530470424183
6.837041819318331,4.514848787976464,-0.7473579493434536,-1.969647157452295
6.882190307198095,4.405701905963658,-0.7670544209179765,-1.6774909010020158
6.926247326257732,4.308427798983069,-0.7838293299279967,-1.3996522484536515
6.969331604247563,4.220935005353254,-0.7978258524125332,-1.1342105566200096
7.011540954301095,4.141401885628053,-0.8091679579787333,-0.8796697357147562
7.052954973157376,4.068230461609131,-0.8179646553358809,-0.6348945094875484
7.093637277773467,4.000007497291752,-0.8243136004307564,-0.3990526997321765
7.133637352746384,3.935473390457022,-0.8283041274280781,-0.1715647167281471
7.172992086650955,3.8734982229300163,-0.8300197745953596,0.047940251182854554
7.211727068880255,3.8130639105700603,-0.829540372083531,0.25966236912262436
7.249857707985956,3.7532513299144883,-0.8269437483923048,0.4636646426425577
7.287390221285101,3.6932313674728103,-0.8223071019658792,0.6599026193991419
7.324322534959829,3.6322589504608187,-0.8157080757718878,0.848250941389119
7.360645124464437,3.5696692390655254,-0.8072255663579966,1.028527174031443
7.3963418168550925,3.504875278489221,-0.7969402946176821,1.2005131681007286
7.4313905696399845,3.43736652160333,-0.7849351629366749,1.3639740873489903
7.465764234856017,3.3667077403028034,-0.7712954220631849,1.5186751576299196
7.499431312259046,3.2925379457744564,-0.7561086704868857,1.664396156826285
7.532356691716791,3.2145690341197515,-0.7394647089186228,1.8009436607328966
7.564502382057988,3.132583962451558,-0.7214552723112938,1.9281610789969958
7.5958282216825035,3.0464343396250984,-0.7021736615213239,2.0459365479495997
7.626292565078755,2.956037383200028,-0.6817142960418279,2.1542087852088505
7.655852938910755,2.8613722487047104,-0.6601722081897393,2.252971047375391
7.684466661397802,2.7624757783357876,-0.6376424977159854,2.34227336201973
7.71209141918116,2.659437744421988,-0.614219764095788,2.4222232256426453
7.73868579662538,2.552395679741325,-0.5899975318393615,2.4929849694973796
7.764209753422794,2.4415293941662273,-0.5650676821443877,2.5547779958189345
7.788625047364456,2.327055277486864,-0.5395199021861984,2.6078740799272833
7.811895600139325,2.209220483971127,-0.5134411613869255,2.6525939212282252
7.833987804979036,2.08829708730851,-0.4869152221746433,2.689303110762357
7.854870775852121,1.964576286628433,-0.4600221910670197,2.718407666768379
7.874516538718406,1.8383627363049155,-0.4328381143993359,2.740349274298484
7.892900166081455,1.7099690647512598,-0.405434621656351,2.755600351172605
7.909999856728968,1.579710640424799,-0.377878618144625,2.764659050793219
7.925796963133216,1.4479006365562186,-0.3502320276366928,2.7680443023790593
7.940275969498778,1.314845439294496,-0.32255158461290223,2.7662909805088804
7.953424423891723,1.180840436610998,-0.29488867480781344,2.7599452878502073
7.965232828257832,1.0461662171266635,-0.26728922192931137,2.7495604269613194
7.975694490429099,0.9110851988713768,-0.23979361765969817,2.7356926286227794
7.984805342417813,0.7758386979002334,-0.21243669137347038,2.718897595022682
