th1 (rad),w1 (rad/s),th2 (rad),w2 (rad/s)
0.05558926086574327,1.7667151318057144,2.5181624361594945,3.06069839496386
0.07325641218380041,1.7582276256621987,2.5487694201091333,2.977276208540663
0.0908386884404224,1.7454607953112935,2.57854218219454,2.89338342280966
0.10829329639353533,1.7286102076883958,2.6074760164226367,2.809167418381915
0.1255793984704193,1.7078716828380711,2.635567690606456,2.7247706368922127
0.14265811529880001,1.6834398625808784,2.662815396975378,2.640329043805532
0.1594925139246088,1.6555069736630192,2.689218687413433,2.5559708981636247
0.17604758366123902,1.6242617816667972,2.7147783963950696,2.471815802916337
0.19229020147790699,1.5898887267289479,2.739496554424233,2.3879740067168798
0.20818908874519645,1.5525672284315453,2.763376294491402,2.3045459269376116
0.2237147610295119,1.512471144908341,2.786421753760778,2.221621863892635
0.23883947247859533,1.469768370029208,2.8086379723997044,2.139281877532012
0.2535371561788874,1.424620552259431,2.8300307911750244,2.0575957999071632
0.2677833617014817,1.3771829192198213,2.850606749174096,1.9766233592332667
0.2815551908936799,1.3276041928986932,2.870372982766429,1.8964143941651834
0.2948312328226669,1.2760265817150283,2.8893371267080807,1.8170091397736958
0.30759149863981716,1.222585837060644,2.9075072181058177,1.738438569515988
0.3198173570104236,1.1674113634447256,2.924891603800978,1.6607247801351148
0.33149147064487083,1.1106263728413253,2.941498851602329,1.5838814088291888
0.3425977343732841,1.0523480752387913,2.9573376656906207,1.5079140741627615
0.353121215125672,0.9926878986698776,2.9724168064322485,1.4328208340342066
0.36304809411237077,0.9317517331397567,2.9867450147725907,1.3585926555652768
0.37236561144376834,0.8696401938567669,3.0003309413282433,1.2852138930563597
0.38106201338233603,0.8064489000075993,3.013183080258807,1.212662771175516
0.38912650238241203,0.7422687660116666,3.025309707970562,1.1409118713479787
0.3965491900425287,0.6771863027498228,3.036718826684042,1.0699286199141897
0.4033210530700269,0.6112839267039759,3.047418112883184,0.9996757770572194
0.4094338923370667,0.5446402752809667,3.0574148706537563,0.9301119257915158
0.41488029508987634,0.4773305268407261,3.0667159899116716,0.8611919604788316
0.4196536003582836,0.4094267241186782,3.07532790951646,0.7928675744153089
0.42374786759947036,0.3409980998379185,3.0832565852606133,0.7250877460343591
0.42715784859784955,0.27211140335869566,3.0905074627209568,0.6577992232083982
0.4298789626314365,0.2028312272205749,3.097085454953041,0.5909470050211155
0.4319072749036422,0.13322033240442765,3.102994925003252,0.5244748202308509
0.4332394782276865,0.06333997108401089,3.1082396732055604,0.45832560146294093
0.4338728779385266,-0.006749794443584298,3.1128229292201897,0.392441953961294
0.43380537999409075,-0.07698977805751288,3.1167473487598025,0.32676661750272573
0.4330354822135156,-0.14732136286249908,3.12001501493483,0.261242919837053
0.4315622685848906,-0.2176862026261268,3.1226274441332005,0.19581521976689092
0.42938540655862933,-0.2880259333634719,3.1245855963308693,0.13042933772916798
0.4265051472249946,-0.35828189694689794,3.125889889708161,0.06503297149187531
0.4229223282555256,-0.42839487872881904,3.1265402194230796,-0.00042390565830198457
0.4186383794682374,-0.49830486126049967,3.1265359803664965,-0.06598866708081813
0.4136553308556324,-0.5679507962637709,3.1258760936956884,-0.13170567833269783
0.40797582289299467,-0.637270397057708,3.1245590369123613,-0.19761596929290243
0.40160311892241757,-0.7061999536513495,3.122582877219432,-0.26375693614832835
0.3945411193859041,-0.7746741726788224,3.119945307857949,-0.3301620765707634
0.38679437765911584,-0.8426260442673135,3.116643687092241,-0.3968607613808815
0.3783681172164427,-0.9099867377841513,3.112675079478432,-0.4638780458762979
0.3692682498386012,-0.9766855282006415,3.1080362990196693,-0.5312345237846582
0.35950139455659474,-1.042649754532187,3.1027239537818225,-0.5989462264798928
0.34907489701127287,-1.1078048114632142,3.0967344915170236,-0.6670245696623751
0.3379968488966407,-1.172074174840065,3.0900642458204,-0.7354763491467267
0.32627610714824007,-1.235379461216215,3.0827094823289327,-0.8043037867227573
0.31392231253607794,-1.2976405210655053,3.0746664444617053,-0.8735046262577844
0.30094590732542287,-1.358775564646957,3.0659313981991274,-0.9430722792990973
0.2873581516789533,-1.4187013188186253,3.0565006754061366,-1.0129960184251454
0.273171138490767,-1.4773332123702851,3.0463707152218853,-1.0832612154996155
0.25839780636706416,-1.534585586690855,3.035538103066889,-1.1538496208253435
0.2430519505001556,-1.5903719278243258,3.0239996068586357,-1.2247396780010207
0.22714823122191236,-1.6446051152178036,3.0117522100786256,-1.2959068680831483
0.21070218006973432,-1.6971976817491021,2.998793141397794,-1.3673240754823766
0.1937302032522433,-1.7480620789623862,2.98511990064297,-1.4389619669135798
0.17624958246261943,-1.7971109408625812,2.970730280973834,-1.510789373710748
0.15827847305399362,-1.8442573391465733,2.9556223872367267,-1.5827736669496333
0.13983589966252788,-1.889415022405126,2.9397946505672303,-1.6548811141312418
0.12094174943847662,-1.9324986316365094,2.9232458394259178,-1.7270772057045778
0.10161676312211153,-1.973423884392413,2.905975067368872,-1.7993269394822575
0.0818825242781874,-2.012107720048742,2.8879817979740494,-1.8715950510598403
0.06176144707769998,-2.0484683990769104,2.869265847463451,-1.943846178718173
0.04127676308693087,-2.0824255498025512,2.849827385676269,-2.016044951994041
0.02045250758890536,-2.1139001569943834,2.8296669361563285,-2.088155994171674
-0.0006864939810384725,-2.1428144877418975,2.8087853762146118,-2.1601438303977596
-0.02211463885845745,-2.169091951471518,2.7871839379106342,-2.231972694975556
-0.043805558373172626,-2.192656892631513,2.7648642109608788,-2.303606233668398
-0.06573212729948776,-2.2134343165598653,2.7418281486241947,-2.3750070995573407
-0.08786647046508642,-2.231349551348495,2.718078077628621,-2.446136444168625
-0.11017996597857137,-2.246327851140259,2.693616713186935,-2.516953309228291
-0.13264324448997394,-2.258293949244437,2.668447180094652,-2.5874139285229427
-0.1552261839824183,-2.2671715727244894,2.6425730408094226,-2.657470953947746
-0.1778978997096632,-2.2728829336758922,2.615998331269945,-2.7270726248908685
-0.20062672904642212,-2.2753482162268677,2.5887276050210364,-2.7961619056006883
-0.22338021120869078,-2.2744850822855316,2.5607659859650296,-2.8646756210382187
-0.2461250620315461,-2.2702082231080367,2.5321192297546475,-2.9325436278172305
-0.2688271442626265,-2.2624289877083896,2.5027937934764752,-2.999688063004545
-0.2914514341397104,-2.251055122746472,2.4727969128464298,-3.066022719545808
-0.3139619853671751,-2.2359906615232346,2.4421366856509716,-3.131452602564413
-0.3363218919824075,-2.217136001715878,2.4108221596253276,-3.195873725324171
-0.3584932519995663,-2.1943882120663565,2.378863422372086,-3.259173206722633
-0.38043713412022984,-2.1676416069014466,2.3462716903048597,-3.321229733174588
-0.40211355018924433,-2.1367886235871576,2.313059392973114,-3.3819144459707204
-0.42348143642511593,-2.1017210312876746,2.279240248513407,-3.4410923099477992
-0.44449864673799266,-2.06233148925894,2.244829325413929,-3.4986240099194177
-0.46512196163058206,-2.0185154590504943,2.2098430853147346,-3.5543684072566086
-0.485307116221087,-1.9701734573374738,2.1742994012421684,-3.608185569982809
-0.5050088507944618,-1.9172136149029928,2.1382175455423402,-3.6599403658276763
-0.5241809869434917,-1.8595544831954138,2.1016181418840634,-3.7095065794224675
-0.5427765317754458,-1.7971280040236084,2.0645230760898388,-3.7567714833514945
-0.5607478118156819,-1.7298825319437767,2.026955361256324,-3.801640759868831
-0.5780466371351196,-1.6577857747919822,1.9889389536576356,-3.8440436381295195
-0.5946244948830395,-1.580827497997264,1.9504985172763405,-3.8839380836500483
-0.6104327698630121,-1.4990218252383622,1.91165913643984,-3.921315855560044
-0.6254229881153958,-1.4124089639577486,1.8724459778842397,-3.9562072361470038
-0.6395470777549732,-1.3210561909668916,1.8328839055227697,-3.9886852389018856
-0.6527576396646422,-1.225057951750344,1.792997053133751,-4.018869117568344
-0.6650082191821456,-1.1245349568484582,1.7528083619580674,-4.046927030190028
-0.6762535687506301,-1.0196321983204382,1.7123390916561672,-4.073077757989207
-0.6864498907338346,-0.9105158559318234,1.6716083140762752,-4.097591436735091
-0.6955550492931528,-0.7973691124689257,1.6306323997089243,-4.12078932437059
-0.7035287404178421,-0.6803869458607926,1.5894245064652184,-4.143042698415829
-0.71033260987645,-0.5597700078088755,1.54799407948106,-4.1647710450378925
-0.7159303099545388,-0.4357177299819009,1.506346369030681,-4.186439763945576
-0.7202874872543578,-0.30842081600465476,1.4644819713912254,-4.208557665659045
-0.7233716954144043,-0.17805327817717786,1.422396394734635,-4.231674577921987
-0.7251522281961761,-0.04476416123890864,1.380079648955415,-4.256379405586984
-0.7255998698085652,0.09133093797459146,1.3375158548995452,-4.283299004639695
-0.7246865604288193,0.23015849487292647,1.2946828648531483,-4.313098239324198
-0.7223849754800901,0.37169582709127047,1.2515518824599063,-4.346481596210931
-0.7186680172091774,0.51598008402475,1.208087066497797,-4.384196736096885
-0.7135082163689299,0.6631176103111311,1.164245099136828,-4.427040379860557
-0.7068770402658187,0.8132939244229873,1.1199746953382226,-4.475866953649773
-0.6987441010215888,0.9667846449711704,1.075216025801725,-4.53160046696158
-0.689076254571877,1.1239677914872268,1.0299000211321092,-4.595250167085744
-0.6778365766570048,1.2853379794773307,0.9839475194612518,-4.66793060362111
-0.6649831968622315,1.4515231123449657,0.9372682134250407,-4.750886837546829
-0.6504679657387819,1.6233042245272389,0.8897593450495724,-4.845525614052439
-0.6342349234935094,1.801639105421148,0.8413040889090481,-4.953453326655662
-0.6162185324392979,1.9876901369655486,0.7917695556424914,-5.076521403851203
-0.5963416310696424,2.182856213533654,0.7410043416039793,-5.216879084101022
-0.5745130689343059,2.3888072857162603,0.6888355507629691,-5.37703187225039
-0.5506249960771432,2.607517186389397,0.6350652320404652,-5.559900204000462
-0.5245498242132492,2.8412843760958593,0.5794662300004605,-5.768864805046863
-0.49613698045229065,3.0927179589309794,0.5217775819499919,-6.007768585762777
-0.46520980086298086,3.364641712696015,0.4616998960923641,-6.280811221101663
-0.4315633837360207,3.659820719822103,0.3988917838813475,-6.592206092798795
-0.39496517653779967,3.9803247162597004,0.3329697229533595,-6.945343524493229
-0.35516192937520263,4.326186278898197,0.2635162877084272,-7.340985896551213
-0.31190006658622066,4.69279490128924,0.1901064287429151,-7.773713257149615
-0.2649721175733283,5.0663572033450315,0.11236929617141896,-8.22567163559996
-0.21430854553987796,5.417457987826897,0.030112579815419344,-8.657634337818585
-0.16013396566160898,5.695991185852969,-0.056463763562766514,-9.001862102774737
-0.10317405380307929,5.837479281740757,-0.14648238459051388,-9.17063491891386
-0.04479926098567171,5.7923090986474,-0.2381887337796525,-9.096449893289755
0.013123830000802292,5.5645060657043635,-0.32915323271255004,-8.78529093566317
0.06876889065784593,5.214571545314063,-0.41700614206918174,-8.320052950386856
0.12091460611098656,4.817164833863084,-0.5002066715730503,-7.801971796068962
0.1690862544496174,4.424295606145743,-0.57822638953374,-7.300437337541026
0.21332921051107484,4.06033082430145,-0.6512307629091502,-6.846860468913963
0.25393251875408934,3.732168997628575,-0.7196993675982898,-6.449058142090756
0.2912542087303751,3.4386377731561972,-0.7841899490191974,-6.104223757484634
0.32564058646193705,3.175703268452784,-0.8452321865940438,-5.805997646993952
0.3573976191464649,2.938789820934641,-0.9032921630639833,-5.547546773258893
0.3867855173558113,2.723659870588378,-0.9587676307965722,-5.322686179709289
0.4140221160616951,2.526670862974566,-1.011994492593665,-5.126169187179933
0.43928882469144076,2.344788353350482,-1.0632561844654644,-4.953662136672124
0.46273670822494556,2.1755166364118668,-1.1127928058321856,-4.801619382409834
0.48449187458906423,2.016811364877497,-1.160808999656284,-4.66714253484073
0.5046599882378392,1.8669977345802984,-1.2074804250046913,-4.5478532321105
0.5233299655836422,1.7247012084556392,-1.2529589573257964,-4.441786994446897
0.5405769776681986,1.5887913715152762,-1.2973768272702655,-4.347307690007358
0.5564648913833513,1.4583373364067984,-1.340849904170339,-4.263039642371907
0.5710482647474193,1.332572617260444,-1.3834803005940581,-4.187814038997336
0.5843739909200237,1.2108675018408595,-1.4253584409840314,-4.120626665435524
0.5964826659384324,1.0927072488074159,-1.4665647076383868,-4.060604540125604
0.6074097384265065,0.9776747522018051,-1.5071707530396428,-4.006979554665342
0.6171864859485245,0.8654365927811054,-1.5472405485862961,-3.959067670993764
0.6258408518763356,0.7557316232203259,-1.5868312252962338,-3.9162525805451667
0.6333981681085389,0.6483614156357169,-1.6259937511016855,-3.877973000515246
0.639881782264896,0.543182044359559,-1.664773481106838,-3.843712982791473
0.6453136027084916,0.4400967937944499,-1.7032106109347527,-3.8129947551315397
0.6497145706464361,0.3390494784976831,-1.7413405584860682,-3.7853737131315124
0.653105065431413,0.24001814651760814,-1.7791942956173834,-3.760435244783818
0.6555052468965891,0.14300901158805251,-1.8167986480652216,-3.737793104952028
0.6569353370124696,0.04805052738843202,-1.854176579114742,-3.7170890720202
0.657415842286354,-0.0448124216669812,-1.891347469834944,-3.6979936200480292
0.6569677180696841,-0.13552418448771436,-1.9283274060354243,-3.6802073335326533
0.655612476224807,-0.22402378828367456,-1.9651294793707508,-3.663462784670423
0.6533722383419702,-0.31025005634931313,-2.001764107217455,-3.647526590650924
0.6502697377784771,-0.3941462697201407,-2.038239373123964,-3.632201375871924
0.6463282750812757,-0.4756642379006294,-2.0745613868826833,-3.617327384436021
0.6415716327022694,-0.554767653428841,-2.1107346607270436,-3.6027835233453906
0.6360239561679809,-0.6314346290480255,-2.1467624959604974,-3.5884876657237412
0.6297096098775007,-0.7056593521533236,-2.1826473726177347,-3.5743961032792226
0.6226530163559675,-0.7774528350743845,-2.2183913336505268,-3.560502103409842
0.6148784880052236,-0.8468427868528434,-2.253996354684625,-3.546833593071848
0.6064100601366952,-0.9138726774365349,-2.2894646906153437,-3.5334500527774453
0.5972713333623298,-0.9786001040401464,-2.3247991911431183,-3.520438754525425
0.5874853323219283,-1.0410945982628126,-2.3600035786883726,-3.5079105131865944
0.5770743863393002,-1.1014350293105954,-2.3950826838202386,-3.495995139856761
0.5660600360461943,-1.1597067628498277,-2.4300426352188063,-3.48483678797356
0.5544629684176959,-1.2159987275993898,-2.464891003098542,-3.474589370406523
0.5423029811417021,-1.2704005248876238,-2.4996368968026075,-3.4654122014569246
0.5295989758928258,-1.322999692879095,-2.5342910188171768,-3.457465985671571
0.5163689789640349,-1.3738792100634203,-2.5688656786738924,-3.450909239638979
0.5026301868634007,-1.423115294743883,-2.6033747710702824,-3.4458951971683254
0.48839903391596184,-1.470775531026249,-2.6378337230419655,-3.4425692153849616
0.4736912786056994,-1.5169173288932072,-2.672259415195815,-3.4410666713362263
0.4585221053167673,-1.5615867073744916,-2.706670081909177,-3.4415113167956983
0.4429062382430224,-1.6048173759802553,-2.741085195077134,-3.4440140433857684
0.42685806448321983,-1.6466300803497131,-2.775525335510992,-3.4486720005880547
0.4103917636797227,-1.687032173023194,-2.8100120555168724,-3.45556800494364
0.39352144194949074,-1.726017368715794,-2.844567735566309,-3.4647701788044496
0.3762612682623328,-1.7635656447194354,-2.8792154373543535,-3.4763317603674575
0.35862561181513847,-1.7996432503685265,-2.9139787549580283,-3.490291032446276
0.3406291793114532,-1.834202794232045,-2.948881665282491,-3.5066713246823165
0.3222871513691328,-1.8671833833123632,-2.983948378529314,-3.5254810520089634
0.3036153175360091,-1.8985107946300006,-3.0192031890494038,-3.5467137606688315
0.28463020958970914,-1.9280976658595956,-3.054670326656092,-3.5703481616174297
0.2653492329311132,-1.9558436979587626,-3.0903738082722665,-3.5963481395310852
0.24579079595152556,-1.9816358688756446,-3.1263372896675774,-3.624662733779267
0.2259744372627691,-2.0053486633598774,-3.16258391700537,-3.655226095595995
0.20592095062917035,-2.026844329586971,-3.19913617796133,-3.6879574333018024
0.18565250733330063,-2.0459731786906343,-3.236015752294348,-3.7227609648017537
0.16519277554639428,-2.06257394831427,-3.2732433619423653,-3.759525903708991
0.14456703606325158,-2.076474255836537,-3.3108386209794554,-3.7981265122634618
0.12380229350488621,-2.0874911708383395,-3.34881988610209,-3.8384222606114684
0.10292738179650282,-2.0954319394384635,-3.3872041087082048,-3.8802581377805296
0.08197306240211819,-2.100094895042777,-3.42600669008601,-3.9234651645303726
0.060972113451690416,-2.1012705904727627,-3.465241341731314,-3.9678611617945863
0.03995940754696279,-2.0987431849551426,-3.50491995334926,-4.01325183017183
0.018971975697411363,-2.0922921156280663,-3.5450524716509784,-4.059432195338137
-0.0019509454588692993,-2.081694076620671,-3.5856467936043597,-4.106188470761604
-0.022767886225076008,-2.0667253190202337,-3.6267086783119757,-4.1533003821618495
-0.043435139415278344,-2.0471642719054417,-3.668241682133594,-4.200543987320651
-0.06390678213433276,-2.022794468042828,-3.7102471220068005,-4.247695009853419
-0.08413472681476104,-1.9934077380366086,-3.7527240721053348,-4.294532686410535
-0.10406880419512712,-1.9588076142536868,-3.79566939896944,-4.340844103885991
-0.12365688033766399,-1.9188128616717417,-3.8390778400083,-4.386428977416337
-0.1428450089543814,-1.873261028282096,-3.8829421297824633,-4.431104792605412
-0.16157761923720237,-1.8220118845531823,-3.9272531777085176,-4.474712208355724
-0.1797977380827342,-1.7649506017284804,-3.9720002997920747,-4.517120592195364
-0.197447244100019,-1.7019905045032617,-4.017171505714028,-4.558233540604529
-0.2144671491450516,-1.6330752268847613,-4.062753841120074,-4.597994225164428
-0.23079790141389922,-1.5581801023901358,-4.108733783371719,-4.636390403742243
-0.24637970243780058,-1.4773126321126928,-4.155097687409141,-4.673458946225211
-0.26115282875892754,-1.390511896623163,-4.201832276871393,-4.709289747545741
-0.2750579477251592,-1.2978468091389859,-4.248925174346851,-4.744028936891673
-0.28803641581654904,-1.1994131457547679,-4.296365463715767,-4.777881339949402
-0.3000305472740967,-1.0953293306407401,-4.3441442771152605,-4.8111122086098685
-0.3109838405805041,-0.9857309960816482,-4.3922553992013595,-4.844048296788487
-0.32084115054132056,-0.8707643747425517,-4.440695882169244,-4.877078428443177
-0.32954879428874606,-0.7505786103278081,-4.4894666664536755,-4.910653771139829
-0.33705458039202413,-0.6253170890035189,-4.538573204165074,-4.945288092795472
-0.3433077512820593,-0.4951078945313623,-4.588026085093029,-4.981558338749032
-0.3482588302273729,-0.36005347298015955,-4.637841668480519,-5.020105920691148
-0.3518593649571745,-0.22021955720589625,-4.688042727687431,-5.061639159440972
-0.3540615605292335,-0.07562334713696503,-4.738659119281841,-5.106937372866107
-0.35481779400060315,0.07377912966853337,-4.789728493010502,-5.156857152459789
-0.3540800027039178,0.22810663972538164,-4.8412970645351,-5.212341431940226
-0.351798936306664,0.3875676093335124,-4.893420478854502,-5.274432022982752
-0.34792326021332887,0.5524766020282744,-4.946164799084329,-5.344286378594507
-0.34239849419304613,0.7232728780421134,-4.999607662870274,-5.423199439120808
-0.335165765412625,0.9005415849021525,-5.0538396572614825,-5.512631501120331
-0.32616034956360346,1.085038142257523,-5.108965972272686,-5.614243078694422
-0.31530996814102824,1.277716249290766,-5.16510840305963,-5.729937596135774
-0.3025328056481206,1.4797594899532085,-5.222407779020988,-5.861912239905327
-0.2877352107485885,1.6926153982780792,-5.281026901420041,-6.012715953654256
