th1 (rad),w1 (rad/s),th2 (rad),w2 (rad/s),a1 (rad/s^2),a2 (rad/s^2)
4.636582148875465,0.8774507973453789,3.6620602624400056,1.7540273312738588,8.253094327823428,0.8758207775169012
4.645356656848918,0.9599817406236132,3.679600535752744,1.762785539049028,8.179502669670015,1.1272845113002805
4.654956474255154,1.0417767673203133,3.6972283911432346,1.7740583841620308,8.094065018005818,1.3998293860486213
4.665374241928357,1.1227174175003716,3.714968974984855,1.7880566780225169,7.996337988837427,1.6931252006097193
4.676601416103361,1.202680797388746,3.73284954176508,1.804987930028614,7.8858841101931665,2.006772290401794
4.688628224077249,1.2815396384906776,3.7508994210653666,1.825055652932632,7.762264475060678,2.340300265214461
4.701443620462156,1.3591622832412844,3.769149977594693,1.8484586555847766,7.625031395710375,2.6931668083791336
4.715035243294569,1.4354125971983882,3.7876345641505407,1.875390323668568,7.473721192472275,3.0647565700091413
4.729389369266553,1.510149809123111,3.8063884673872264,1.9060378893686594,7.307847254777723,3.4543802280311153
4.744490867357784,1.5832282816708882,3.825448846280913,1.9405816916489704,7.126893521524868,3.861273828408212
4.760323150174493,1.654497216886137,3.844854663197403,1.9791944299330526,6.930308541927989,4.284598549378731
4.7768681223433545,1.723800302305417,3.8646466074967334,2.02204041542684,6.717500296749494,4.723441063323166
4.794106125366409,1.7909753052729118,3.884867011651002,2.069274826060072,6.487831982465057,5.176814694032408
4.812015878419138,1.8558536250975624,3.9055597599116023,2.121042973000396,6.240618986353581,5.64366158683345
4.830574414670114,1.918259814961098,3.9267701896416063,2.1774795888687306,5.975127307365703,6.122856124257461
4.849757012819724,1.9780110880347552,3.9485449855302934,2.238708150111305,5.690573704477499,6.613209830274796
4.869537123700072,2.0349168250795304,3.9709320670314066,2.304840248414053,5.386127879804574,7.113478010348692
4.889886291950867,2.0887781038775763,3.993980469515547,2.37597502851754,5.060917027158933,7.622368370312669
4.910774072989643,2.1393872741491657,4.017740219800722,2.4521987122206665,4.714033097783549,8.138551840509958
4.932167945731134,2.1865276051270013,4.0422622069229295,2.5335842306257663,4.34454315452919,8.660675797049809
4.954033221782404,2.229973036672293,4.067598049229187,2.6201909885962644,3.9515032060325166,9.187379811488528
4.976332952149127,2.269488068732618,4.09379995911515,2.71206478671115,3.5339759378173494,9.717313963049067
4.999027832836453,2.304827828110792,4.120920606982261,2.8092379263416403,3.091052794735504,10.24915959960319
5.022076111117561,2.335738356058147,4.149012986245677,2.911729522337672,2.6218809296116787,10.781652216758701
5.045433494678142,2.361957165354264,4.178130281469054,3.019546044505259,2.12569563227557,11.31360581472275
5.069053066331684,2.3832141216770197,4.2083257419141065,3.1326821026524865,1.6018590141412334,11.84393765903086
5.092885207548455,2.3992327118184322,4.239652562940631,3.251121479242795,1.0499059781133482,12.37169177269172
5.116877534666639,2.409731771599566,4.272163777733059,3.374838396969712,0.46959889603212485,12.896058669155217
5.140974852382635,2.414427760559887,4.305912161702756,3.503798983661264,-0.1390069938057232,13.416387724504306
5.165119129988233,2.4130376906218296,4.340950151539369,3.637962860906307,-0.7754845878678582,13.93218708494021
5.189249506894452,2.405282844743151,4.377329780148432,3.7772847317557092,-1.4389381836210435,14.443103980247757
5.213302335341884,2.3908934629069405,4.415102627465989,3.921715771558187,-2.1278831056103633,14.948875591733513
5.237211269970953,2.369614631850837,4.45431978518157,4.071204527475522,-2.8400933300767006,15.44923698134529
5.260907416289462,2.34121369855007,4.495031830456326,4.225696897288975,-3.5724054157627316,15.943767756146972
5.284319553274963,2.3054896443924426,4.5372887994292155,4.3851345748504444,-4.320462652283959,16.431652820443684
5.307374449718887,2.262285017869603,4.58114014517772,4.549451103054881,-5.078377747346951,16.911324497316706
5.329997299897583,2.2115012403961334,4.626634656208269,4.718564348028049,-5.838285659395894,17.37994342331418
5.352112312301545,2.1531183838021746,4.67382029968855,4.8923637822611905,-6.589750885570235,17.832664420325074
5.373643496139566,2.087220874946472,4.7227439375111615,5.0706904264644415,-7.3189871765762,18.26162273540493
5.394515704889031,2.01403100318071,4.773450841775806,5.253306653818491,-8.007845748018935,18.65456978919971
5.414656014920838,1.9339525457005207,4.825983908313991,5.439852351710488,-8.63253757265048,18.993094654853934
5.433995540377843,1.8476271699740159,4.880382431831096,5.629783298259028,-9.162089096335329,19.25040451527708
5.452471812077583,1.7560062790106625,4.9366802648136865,5.822287343411799,-9.556610256974915,19.38873290131793
5.47003187486769,1.6604401764409134,4.994903138247804,6.016174672424978,-9.765611068856138,19.356642182769573
5.486636276632099,1.562784065752352,5.055064884972054,6.209741094252674,-9.726876986857832,19.086840939787834
5.502264117289623,1.4655152958837736,5.11716229591458,6.400609503650553,-9.36682911851675,18.495687097233
5.516919270248461,1.3718470046986062,5.181168390951086,6.585566374622883,-8.603811538862297,17.486248286827347
5.530637740295447,1.2858088893099833,5.247024054697315,6.760428857491156,-7.356154462392256,15.95737401631067
5.543495829188546,1.2122473446860607,5.3146283432722266,6.920002597654263,-5.55665800159696,13.821041855233855
5.555618302635407,1.156680764670091,5.38382836924877,7.058213016206602,-3.173540972977547,11.028223046662887
5.567185110282108,1.1249453549403154,5.4544104994108356,7.16849524667323,-0.2342862104225166,7.59883098543082
5.578434563831511,1.1226024928360903,5.526095451877568,7.2444835565275385,3.1561162209046825,3.644864939792838
5.589660588759872,1.154163655045137,5.598540287442844,7.280932205925467,6.8140904228543775,-0.6281491497586916
5.601202225310324,1.2223045592736808,5.671349609502098,7.27465071442788,10.50161075122749,-4.951663222426077
5.613425270903061,1.3273206667859556,5.744096116646377,7.225134082203619,13.97199702932756,-9.051565586770938
5.626698477570921,1.4670406370792313,5.816347457468413,7.134618426335909,17.020539071361156,-12.710455961044566
5.6413688839417135,1.637246027792843,5.887693641731772,7.007513866725463,19.519176231734065,-15.808060454101813
5.657741344219642,1.8324377901101836,5.957768780399027,6.849433262184445,21.424033151016495,-18.32628690696797
5.676065722120744,2.0466781216203485,6.026263113020871,6.666170393114766,22.75963391491557,-20.325147712653774
5.696532503336948,2.274274460769504,6.092924816952019,6.462918915988228,23.592580720193393,-21.906883371114912
5.719275247944642,2.510200267971438,6.157554006111901,6.243850082277079,24.006731730472303,-23.1838208640318
5.744377250624357,2.7502675852761613,6.219992506934672,6.0120118736367605,24.085964644324903,-24.25724735892127
5.771879926477118,2.9911272317194104,6.28011262567104,5.769439400047548,23.905106371616963,-25.20736805318669
5.801791198794312,3.23017829543558,6.337807019671516,5.5173657195156816,23.526874781830795,-26.091086963426246
5.834092981748668,3.4654470432538877,6.392980676866673,5.256454849881419,23.00224059871952,-26.94404372225629
5.868747452181207,3.695469449241083,6.445545225365486,4.987014412658857,22.372229457649944,-27.784313169878743
5.905702146673618,3.9191917438175827,6.495415369492075,4.709171280960069,21.669968462296747,-28.61627175665577
5.944894064111794,4.135891428440551,6.542507082301675,4.423008563393512,20.922379859685226,-29.43392120138437
5.986252978396199,4.345115227037403,6.586737167935611,4.128669351379668,20.151284569987176,-30.223403250354593
6.029704130666573,4.546628072737275,6.628023861449408,3.826435318876122,19.373858206514747,-30.964639591560054
6.075170411393946,4.740366654802423,6.666288214638169,3.5167889229605214,18.602452278845803,-31.632092913255253
6.12257407794197,4.92639117759088,6.701456103867774,3.200467993827969,17.843806648569583,-32.194644212659064
6.171837989717879,5.104829244076576,6.733460783806054,2.8785215517013785,17.09767227765476,-32.61456776620548
6.222886282158645,5.275805966853124,6.762245999323068,2.5523758740393236,16.354864900767158,-32.84559811224055
6.275644341827176,5.439354615860795,6.787769758063461,2.223919892916918,15.594813613135221,-32.83016812201135
6.330037887985784,5.595302751992147,6.81000895699263,1.8956182116968048,14.782801410672255,-32.496119328157384
6.3859909155057055,5.7431307660988695,6.828965139109598,1.5706570184152309,13.867386051518944,-31.75363865330023
6.443422223166694,5.881804626614059,6.84467170929375,1.2531206318822286,12.779017037588236,-30.493962904671097
6.502240269432835,6.0095947969899415,6.8572029156125724,0.9481810028355175,11.431656653916452,-28.59254117154799
6.562336217402734,6.123911363529106,6.866684725640928,0.6622555911200376,9.730097867009496,-25.920588018618762
6.623575331038025,6.221212342199201,6.873307281552129,0.40304971093385,7.586014330362817,-22.369360234511902
6.6857874544600175,6.297072485502829,6.877337778661468,0.17935610858873097,4.944267531961204,-17.889148239953574
6.748758179315046,6.346515160822441,6.879131339747355,0.0004646261891952108,1.8160661722576232,-12.537655307523805
6.8122233309232705,6.364675822545017,6.8791359860092465,-0.12491192688604283,-1.6926930589818716,-6.5203428619293184
6.87587008914872,6.347748891955199,6.877886866740386,-0.190115355505336,-5.376451536450995,-0.1953866594698467
6.939347578068272,6.293984376590688,6.875985713185333,-0.19206922210003446,-8.963163869547545,5.978409533290792
7.002287421834179,6.204352737895213,6.874065020964332,-0.13228512676712656,-12.180958498139058,11.543740947940949
7.064330949213131,6.082543152913822,6.872742169696661,-0.01684771728771707,-14.829625753896053,16.15454733415429
7.125156380742269,5.934246895374862,6.872573692523783,0.14469775605382584,-16.822149340983295,19.641524579109497
7.184498849696018,5.766025401965029,6.874020670084321,0.3411130018449208,-18.1813813563695,22.010385510826353
7.242159103715668,5.584211588401335,6.87743180010277,0.5612168569531844,-19.004363547588063,23.39036347662086
7.298001219599682,5.394167952925454,6.883043968672302,0.7951204917193929,-19.418778989810367,23.968921686970486
7.351942899128936,5.19998016302735,6.890995173589496,1.0348097085890977,-19.549523192197583,23.939892973719054
7.40394270075921,5.004484931105374,6.901343270675387,1.2742086383262883,-19.500785126766086,23.473987935050754
7.453987550070264,4.809477079837713,6.914085357058649,1.5089485176767958,-19.35065870247506,22.70803244297905
7.502082320868641,4.615970492812962,6.929174842235417,1.7360288421065864,-19.15296308793435,21.745435131941512
7.54824202579677,4.424440861933618,6.946535130656483,1.9534831934260015,-18.94197246632912,20.66158025048166
7.592486434416107,4.235021137270327,6.966069962590743,2.1600989959308183,-18.73755341790151,19.510340653409433
7.63483664578881,4.047645603091312,6.987670952550052,2.3552024024649127,-18.5496059797945,18.329933250686565
7.675313101819723,3.8621495432933672,7.011222976574701,2.5385017349717782,-18.38150528619815,17.1475429032639
7.713934597252657,3.6783344904313857,7.036607993924419,2.7099771640044175,-18.232604668346973,15.982715566086004
7.750717942156971,3.496008443747916,7.063707765564463,2.8698043196652776,-18.099981492330897,14.84973325245576
7.78567802659445,3.3150086288246072,7.092405808761116,3.018301652189835,-17.97961588787583,13.759221104563114
7.818828112882696,3.135212469945849,7.122588825283015,3.155893863235466,-17.867161262054662,12.71920608930905
7.850180237582155,2.9565408573253023,7.154147763915369,3.2830859241285566,-17.758426721590507,11.735797941324547
7.879745646155408,2.7789565901093973,7.186978623156655,3.400443903541802,-17.649657528510595,10.813616414252913
7.907535212056502,2.6024600148242913,7.220983062192073,3.5085800676843313,-17.537673514684332,9.956051031730489
7.933559812204745,2.427083279677448,7.256068862868917,3.608140578001636,-17.419906419117545,9.165410867776831
7.957830645001519,2.2528842154862727,7.292150268648933,3.6997946866794043,-17.294363803275356,8.443000984775912
7.980359487156382,2.0799405774535193,7.329148215515727,3.7842246965271635,-17.159537964027265,7.789147230923651
8.001158892930917,1.9083451978132466,7.366990462480999,3.8621161688364,-17.01427186145381,7.203180617906647
8.02024234490905,1.7382024791987085,7.405611624169363,3.9341479750154664,-16.85758967319606,6.683385353663254
8.037624369701037,1.569626582466748,7.444953103919517,4.000981828552099,-16.68849672200681,6.226910124028076
8.053320635525704,1.4027416152466798,7.484962922205038,4.06325092979238,-16.5057520925173,5.829640164775751
8.067348051678172,1.2376840943215068,7.525595431502961,4.121547331440137,-16.30761748909712,5.48602825233818
8.079724892621387,1.0746079194305356,7.566810904817363,4.176407613963519,-16.091588362740065,5.1888866530707185
8.090470971815693,0.9136920358031348,7.608574980956998,4.228296480494227,-15.854118954838427,4.9291504759609275
8.099607892173724,0.7551508462547506,7.65085794576194,4.277587985253836,-15.590362809382462,4.695637316853232
8.107159400636272,0.599247218160926,7.693633825614478,4.324544358422369,-15.293965569404275,4.474850093506731
8.11315187281788,0.4463075624668832,7.736879269198702,4.369292859357436,-14.95696781886613,4.250900124811764
8.117614948442549,0.2967378842782219,7.780572197792276,4.411801860605554,-14.569900615378208,4.005663621188625
8.120582327285332,0.1510388781244398,7.824690216398332,4.45185849681744,-14.122179364229146,3.719319072529791
8.122092716066577,0.009817084482148353,7.869208801366506,4.489051687542738,-13.602910603950692,3.3714289307388907
8.1221908869114,-0.12621202155735856,7.9140993182419335,4.522765976850127,-13.002201420346191,2.942699323313884
8.120928766695826,-0.2562340357608205,7.959326978010434,4.552192970083266,-12.312978687486313,2.417442867589485
8.118366426338218,-0.37936382263568363,8.004848907711267,4.576367398759161,-11.533168816442387,1.7865582867798404
8.114572788111861,-0.49469551080010754,8.050612581698859,4.594232981626959,-10.66787113185728,1.0505424852779088
8.109625833003859,-0.6013742221186803,8.09655491151513,4.604738406479738,-9.73094519355688,0.2217546907324491
8.103612090782672,-0.6986836740542491,8.142602295579927,4.606955953387063,-8.745345337752928,-0.6749763165566167
8.096625254042129,-0.7861371274317784,8.188671855113798,4.600206190221496,-7.741703402225477,-1.604093786804433
8.088763882767811,-0.8635541614540332,8.234673917016012,4.584165252353452,-6.755122477457828,-2.523475418868839
8.080128341153271,-0.9311053862286115,8.280515569539547,4.558930498164764,-5.820763844659036,-3.390249781327502
8.070817287290986,-0.9893130246752019,8.326104874521196,4.5250280003514884,-4.969296535020962,-4.166835908878378
8.060924157044234,-1.0390059900254114,8.37135515452471,4.483359641262704,-4.223360152128817,-4.82566013485705
8.050534097143979,-1.0812395915466995,8.416188750937337,4.435103039914134,-3.5958085431987152,-5.351518010238829
8.039721701228512,-1.1171976769786867,8.460539781336479,4.381587859811746,-3.089863866812895,-5.741407483604427
8.028549724458726,-1.1480963156468156,8.504355659934596,4.324173784975701,-2.7007420027001654,-6.002422254857975
8.017068761302257,-1.1751037356738172,8.547597397784353,4.2641495624271215,-2.4180339797224293,-6.148660847478273
8.005317723945518,-1.1992840754710414,8.590238893408625,4.202662953952339,-2.2281645200124895,-6.198052628519207
7.993324883190808,-1.2215657206711663,8.632265522948147,4.140682427667146,-2.1164721333485943,-6.169698945117743
7.981109225984096,-1.2427304420046523,8.67367234722482,4.078985438215969,-2.0687134231171673,-6.081981344172406
7.96868192156405,-1.263417576235824,8.71446220160698,4.0181656247742445,-2.071990474451392,-5.951428853743851
7.956047745801692,-1.2841374809803379,8.754643857854722,3.958651336236806,-2.1152066534143126,-5.792197953344814
7.943206370991889,-1.305289547514481,8.79423037121709,3.900729356703358,-2.189188904912276,-5.6159790019115885
7.930153475516744,-1.3271814365636039,8.833237664784123,3.844569566684242,-2.286603571961151,-5.432160605042383
7.916881661151108,-1.3500474722832154,8.871683360450966,3.790247960633818,-2.4017636043933765,-5.2481240368033575
7.903381186428276,-1.3740651083271491,8.909585840057304,3.7377667202657845,-2.530393747838301,-5.069582242106677
7.889640535345005,-1.3993690458055321,8.946963507259962,3.6870708978447175,-2.6693942779428603,-4.900912630779244
7.875646844886949,-1.4260629885849607,8.98383421623841,3.638061771536925,-2.816625026238561,-4.745457549283788
7.8613862150011,-1.4542292388473463,9.02021483395378,3.590607196044087,-2.970719151717392,-4.605782126516548
7.846843922612627,-1.4839364303645202,9.05612090591422,3.5445493747789216,-3.130928780544839,-4.483888366328952
7.832004558308982,-1.5152457181699686,9.091566399662009,3.499710491115632,-3.297000689255397,-4.381389070647778
7.816852101127282,-1.5482157250625226,9.126563504573165,3.4558966004091545,-3.4690783838238115,-4.299647121833759
7.801369943876656,-1.5829065089007608,9.161122470577256,3.4129001291908168,-3.647626334440877,-4.239886011758985
7.785540878787649,-1.6193827722451695,9.195251471869165,3.370501269073227,-3.8333721783275743,-4.203277031782413
7.769347051065197,-1.6577164940284452,9.228956484559896,3.3284684987554027,-4.027263039813498,-4.19100767858165
7.752769886124913,-1.6979891244265801,9.262241169547451,3.2865584219695863,-4.230432527143276,-4.2043348275155035
7.735789994880647,-1.740293449698013,9.295106753767147,3.2445150736944313,-4.444175331068375,-4.244625191373451
7.718387060383667,-1.7847352030086967,9.32755190450409,3.202068821780697,-4.669926607418631,-4.313384554262695
7.70053970835358,-1.831434469082883,9.359572592721898,3.15893497623807,-4.909243439848945,-4.412276239140594
7.682225363662751,-1.8805269034813725,9.39116194248428,3.114812213846664,-5.1637856290887285,-4.543128198604745
7.663420094627938,-1.9321647597722598,9.422310064622746,3.0693809318606164,-5.435292826098532,-4.707926963561831
7.644098447030215,-1.9865176880332451,9.453003873941352,3.022301662224998,-5.7255546053870265,-4.908795388854468
7.624233270149882,-2.0437732340871153,9.483226890563602,2.9732137083364534,-6.0363694506494285,-5.147949645656912
7.603795537809011,-2.1041369285936096,9.512959027646966,2.921734211879884,-6.369487794069667,-5.42762918515304
7.582754168523075,-2.167831806534306,9.542176369765764,2.867457920028354,-6.726533225592276,-5.7499914202997715
7.561075850457732,-2.2350971387902288,9.570850948966047,2.809958005825356,-7.108894813914069,-6.116960676060765
7.53872487906983,-2.3061860869293693,9.5989505290243,2.7487883990647486,-7.517582258385139,-6.53001866473229
7.515663018200536,-2.381361909513221,9.626438413014947,2.6834882124174255,-7.953034514444882,-6.98992161628334
7.491849399105404,-2.4608922546576695,9.65327329513912,2.613588996254592,-8.414871939193983,-7.49632771779293
7.467240476558827,-2.545040974049609,9.679409185101667,2.538625719076663,-8.901582421933666,-8.047318490259672
7.441790066818331,-2.634056798268946,9.704795442292435,2.458152534174066,-9.410134190286263,-8.638800373824868
7.415449498835642,-2.7281581401718085,9.729376967634176,2.3717645304358173,-9.935513109145836,-9.263779822400217
7.388167917433924,-2.8275132712632667,9.753094612938535,2.279126732211815,-10.470191688485793,-9.911518838206108
7.359892784721291,-2.9322151881481244,9.775885880260653,2.180011543829754,-11.003552181799364,-10.566600610131246
7.33057063283981,-3.042250709966118,9.79768599569895,2.0743455377284414,-11.521308324164403,-11.20796900008399
7.300148125740148,-3.157463793207762,9.818429451076234,1.9622658477276016,-12.004999685909064,-11.808051949608922
7.26857348780807,-3.2775137900668527,9.83805210955351,1.8441853282315124,-12.431667491205117,-12.332135297719544
7.235798349907402,-3.4018304649789037,9.856493962835826,1.720863975254317,-12.773855832715524,-12.738212577311046
