th1 (rad),w1 (rad/s),th2 (rad),w2 (rad/s),a1 (rad/s^2),a2 (rad/s^2)
1.813276374424415,3.087860627224055,5.368532079712504,0.2268825223262082,-7.255464569711314,4.954241373059358
1.8441549806966555,3.0153059815269416,5.370800904935766,0.2764249360568018,-7.494694870256374,4.220593519422872
1.874308040511925,2.940359032824378,5.373565154296334,0.3186308712510305,-7.71370148987174,3.536050945423462
1.9037116308401687,2.8632220179256604,5.376751463008844,0.35399138070526515,-7.908883836218194,2.9049547006794296
1.9323438510194253,2.7841331795634785,5.380291376815896,0.38304092771205944,-8.077616381133794,2.3303915698983073
1.96018518281506,2.7033570157521405,5.384121786093017,0.4063448434110425,-8.21820584926266,1.8141920169052497
1.9872187529725815,2.6211749572595138,5.3881852345271275,0.42448676358009496,-8.329820561154202,1.3569839831883554
2.0134305025451766,2.5378767516479717,5.392430102162929,0.4380566034119785,-8.412399487383615,0.958290063038372
2.0388092700616562,2.4537527567741355,5.396810668197048,0.4476395040423622,-8.466548497102833,0.6166552999777272
2.0633467976293978,2.369087271803107,5.401287063237472,0.45380605704213944,-8.493430621094802,0.32979360681998227
2.0870376703474287,2.284152965592159,5.405825123807894,0.4571039931103393,-8.494656119362762,0.09474227235431906
2.10987920000335,2.1992064043985313,5.410396163738997,0.4580514158338825,-8.472176943527264,-0.09198413301909818
2.1318712640473354,2.114484634963259,5.414976677897336,0.4571315745036915,-8.428188968287785,-0.23424716391117506
2.153016110396968,2.030202745280381,5.4195479936423725,0.45478910286457974,-8.365044239513937,-0.3361500203920806
2.1733181378497717,1.9465523028852416,5.4240958846710186,0.45142760266065896,-8.285174511094445,-0.40191826765704386
2.192783660878624,1.863700557774297,5.428610160697625,0.44740841998408853,-8.191026545502355,-0.435797386262908
2.2114206664563674,1.7817902923192737,5.433084244897466,0.44305044612145944,-8.085009036226685,-0.4419676164300722
2.22923856937956,1.7009402019570068,5.43751474935868,0.4386307699571587,-7.96945056014559,-0.4244756713013201
2.24624797139913,1.6212456963555508,5.441901057058252,0.4343860132441455,-7.846567662581975,-0.3871822587007647
2.2624604283626852,1.542780019729731,5.446244917190693,0.43051419065713786,-7.718441992105592,-0.33372393303033165
2.2778882285599824,1.4655955998086752,5.450550059097265,0.42717695132683453,-7.587005311327147,-0.26748755940432667
2.292544184558069,1.3897255466954037,5.454821828610533,0.42450207573279125,-7.4540311913646375,-0.19159557285689394
2.306441440025023,1.3151852347817574,5.459066849367861,0.4225861200042223,-7.321132231798692,-0.10890022178025568
2.319593292372841,1.2419739124637705,5.463292710567903,0.42149711778641974,-7.189761718493118,-0.021985066582691337
2.3320130314974787,1.1700762952788393,5.467507681745768,0.4212772671205928,-7.061218725477134,0.06682786322515825
2.343713794450267,1.099464108024068,5.471720454416974,0.42194554575284443,-6.9366557737983765,0.155466687988559
2.3547084355305077,1.030097550286084,5.475939909874502,0.42350021263273,-6.8170882719066626,0.24209533082686158
2.3650094110333684,0.9619266675670175,5.480174912000829,0.42592116594099866,-6.703405072798029,0.3250972835935282
2.3746286777090386,0.8948926168390372,5.48443412366024,0.42917213877693394,-6.596379588613211,0.4030583924779968
2.383577603877429,0.8289288209529051,5.488725845048009,0.4332027227017139,-6.496681000807974,0.4747494095751833
2.391866892086958,0.7639620109448253,5.493057872275026,0.4379502167974657,-6.404885191683862,0.5391089122827218
2.3995065121964063,0.6999131590279867,5.497437374443001,0.4433413059202929,-6.321485100172004,0.5952270655454408
2.4065056437866863,0.6366983080262666,5.501870787502203,0.4492935765757473,-6.246900271183331,0.6423305931952205
2.412872626866949,0.5742293053144333,5.5063637232679605,0.45571688250769954,-6.181485423991722,0.6797692333514117
2.4186149199200937,0.5124144510745161,5.510920892093037,0.46251457484121367,-6.125537911806697,0.7070038777442696
2.4237390644308388,0.4511590719564491,5.51554603784145,0.4695846136186564,-6.079303982998349,0.7235965340954985
2.428250655150403,0.3903660321264656,5.520241883977636,0.4768205789596114,-6.042983785614963,0.7292022022240081
2.4321543154716676,0.32993619427031595,5.525010089767233,0.4841126009818515,-6.016735082242792,0.7235627160610697
2.4354536774143707,0.26976884344788804,5.529851215777051,0.4913482281424622,-6.00067566330022,0.7065025729165612
2.4381513658488494,0.20976208681488584,5.534764698058476,0.4984132538716278,-5.99488446493533,0.677926745810052
2.4402489867169983,0.14981324216553255,5.539748830597192,0.5051925213297284,-5.999401414165685,0.6378204522146551
2.4417471191386535,0.08981922802387571,5.544800755810489,0.5115707258518749,-6.014226040048041,0.586250831019961
2.442645311418892,0.029676967623395292,5.549916463069008,0.5174332341620745,-6.039314906672875,0.523370456924695
2.442942081095126,-0.030716181443333455,5.555090795410629,0.5226669387313215,-6.074577942683339,0.4494225960406157
2.442634919280693,-0.09146196087016685,5.560317464797942,0.5271611646917277,-6.119873763676652,0.36474807669991843
2.4417202996719913,-0.15266069850693337,5.5655890764448595,0.5308086454587269,-6.175004108885635,0.2697936140971174
2.440193692686922,-0.2144107395957897,5.570897162899446,0.533506581599698,-6.23970754230058,0.1651213856457608
2.438049585290964,-0.27680781501879553,5.576232228715443,0.5351577954561556,-6.313652600872442,0.05141960545586498
2.4352815071407763,-0.33994434102751997,5.581583806670005,0.5356719915107142,-6.396430608222676,-0.07048620860489553
2.431882063730501,-0.4039086471097467,5.586940526585112,0.5349671294246653,-6.487548410490236,-0.1996216422731097
2.4278429772594037,-0.46878413121464907,5.592290197879358,0.5329709130019342,-6.586421330177069,-0.334851897951819
2.4231551359472574,-0.5346483445164197,5.597619907009378,0.5296223940224161,-6.6923666721824,-0.4748709102457749
2.417808652502093,-0.6015720112382438,5.602916130949602,0.5248736849199583,-6.804598151204715,-0.6181916240179557
2.411792932389711,-0.6696179927502909,5.608164867798801,0.5186917686797787,-6.9222216384585575,-0.7631380517960539
2.405096752462208,-0.7388402091348765,5.613351785485599,0.5110603881618182,-7.0442326450160335,-0.9078397726733358
2.397708350370859,-0.8092825355850368,5.618462389367217,0.5019819904350848,-7.169515965748589,-1.0502295632549226
2.389615525015009,-0.8809776952425227,5.623482209271567,0.4914796948025356,-7.296847898689005,-1.1880448571202746
2.3808057480625835,-0.9539461742294127,5.6283970062195925,0.4795992462313329,-7.424901427014915,-1.3188337074113499
2.3712662863202896,-1.028195188499562,5.633192998681906,0.4664109091572194,-7.552254702968327,-1.439965873007849
2.360984334435294,-1.1037177355292451,5.6378571077734785,0.4520112504271409,-7.677403104231652,-1.548649559109253
2.3499471570800012,-1.1804917665715617,5.64237722027775,0.43652475483604836,-7.798775044382297,-1.6419542164846694
2.3381422394142857,-1.2584795170153846,5.64674246782611,0.42010521267120166,-7.914751612439228,-1.7168396408983988
2.325557444244132,-1.3376270331397768,5.650943519952822,0.40293681626221767,-8.02368999616744,-1.7701914183203105
2.3121811739127343,-1.4178639331014513,5.654972888115444,0.38523490207901456,-8.12395051504392,-1.7988625377932026
2.2980025345817197,-1.4991034382518904,5.658825237136234,0.36724627670108256,-8.21392695785427,-1.799720749478039
2.283011500199201,-1.5812427078304332,5.662497699903245,0.34924906920630217,-8.292079793323484,-1.769700988976228
2.2671990731208966,-1.6641635057636681,5.665990190595307,0.33155205931653986,-8.35697170609646,-1.7058619296133588
2.25055743806326,-1.7477332228246327,5.669305711188473,0.31449344002040625,-8.407304809719829,-1.605445470734938
2.233080105835014,-1.831806270921831,5.672450645588677,0.29843898531305685,-8.44195880623158,-1.4659377299448961
2.2147620431257957,-1.9162258589841468,5.675435035441808,0.2837796080136079,-8.460029299673186,-1.2851298868603964
2.195599784535954,-2.0008261519808785,5.678272831521944,0.27092830914500393,-8.460865427475868,-1.0611770301141508
2.1755915230161453,-2.085434806255637,5.6809821146133945,0.2603165388438624,-8.444105947015665,-0.7926529917786636
2.154737174953589,-2.169875865725794,5.683585280001833,0.25239000892607577,-8.40971290207974,-0.47859901790872156
2.1330384162963307,-2.2539729947465914,5.686109180091094,0.24760401874698856,-8.358001993901127,-0.11856402565345794
2.1104986863488646,-2.3375530146856027,5.688585220278564,0.24641837849045398,-8.289668794591396,0.2873658557363427
2.0871231562020087,-2.4204497026315166,5.6910494040634685,0.2492920370478174,-8.20580997172722,0.7385507590755939
2.0629186591756934,-2.502507802348789,5.693542324433946,0.25667754463857334,-8.107938750499459,1.233795791827128
2.0378935811522054,-2.5835871898537834,5.696109099880332,0.26901550255684464,-7.997993937603231,1.771367043997853
2.012057709253668,-2.6635671292298158,5.698799254905901,0.28672917299682316,-7.878341985652346,2.3490266729297633
1.9854220379613696,-2.742350549086339,5.701666546635869,0.31021943972612076,-7.751771806202181,2.9640884477637464
1.9579985324705063,-2.819868267148361,5.7047687410331305,0.3398603242037582,-7.621482359370027,3.6134946088439577
1.9297998497990227,-2.896083090742061,5.708167344275168,0.3759952702921978,-7.4910634689251525,4.29391425097007
1.9008390188916022,-2.9709937254313123,5.71192729697809,0.4189344128018985,-7.364470835019135,5.0018627043464265
1.8711290816372892,-3.0446384337815036,5.716116641106109,0.4689530398453628,-7.2459968325450985,5.733840617168075
1.840682697299474,-3.1170984021069543,5.720806171504563,0.5262914460170436,-7.140239369677459,6.486490716979449
1.8095117132784047,-3.188500795803729,5.726069085964734,0.5911563531868381,-7.0520718067851655,7.256769642934652
1.7776267053203674,-3.2590215138715806,5.731980649496602,0.6637240496161847,-6.98661766391001,8.042131910050994
1.7450364901816515,-3.3288876905106806,5.7386178899927645,0.7441453687166947,-6.949234541068866,8.840723104786223
1.7117476132765448,-3.3983800359213694,5.746059343679931,0.8325525997645569,-6.9455123172798485,9.651579925538273
1.6777638129173311,-3.467835159094168,5.754384869677577,0.9290683990199397,-6.981291280673772,10.474835759576331
1.6430854613263894,-3.5376480719009056,5.763675553667777,1.033816756615703,-7.062706403278145,11.311932191086223
1.6077089806073803,-3.608275135933687,5.774013721233934,1.1469360785265652,-7.1962645770492015,12.165839198046427
1.5716262292480434,-3.6802377817041787,5.7854830820192,1.2685944705070296,-7.3889623788209216,13.041289831546571
1.5348238514310015,-3.754127405492388,5.79816902672427,1.3990073688224953,-7.648452973531312,13.945038881412358
1.4972825773760776,-3.8306119352277013,5.812159100412495,1.538457757636619,-7.983272265140398,14.886159415747304
1.4589764580238005,-3.9104446578791054,5.827543677988861,1.687319351794092,-8.403136532599307,15.876396132543997
1.4198720114450094,-3.9944760232050984,5.844416871506802,1.846083313119532,-8.919326667177218,16.930600127412823
1.3799272512129583,-4.0836692898768705,5.862877704637997,2.0153893143936603,-9.545177733148702,18.067275747136858
1.3390905583141897,-4.179121067208357,5.883031597781933,2.196062071865029,-10.296696518018496,19.309275992112145
1.2972993476421062,-4.282088032388542,5.904992218500584,2.3891548317861506,-11.193332798414193,20.684686662479823
1.2544784673182208,-4.394021360372684,5.928883766818445,2.596001698410949,-12.258929141135079,22.22793675580232
1.210538253714494,-4.516610651784035,5.954843783802555,2.818281065968972,-13.522862004774494,23.981153432507543
1.1653721471966536,-4.65183927183178,5.9830265944622445,3.058092600294047,-15.021347524165174,25.995721454293882
1.118853754478336,-4.802052747073432,6.013607520465185,3.318049814836986,-16.798782691817287,28.33385889718219
1.0708332270076015,-4.970040573991605,6.0467880186135545,3.601388403808808,-18.908747239962768,31.069671629455655
1.0211328212676856,-5.159128046391233,6.082801902651642,3.912085120103365,-21.413728333394396,34.28835294199242
0.9695415408037732,-5.373265329725177,6.121922753852676,4.254968649523289,-24.38136621862429,38.08041462665624
0.9158088875065215,-5.61707899191142,6.164472440347909,4.635772795789852,-27.87223255844015,42.523919335240585
0.8596380975874073,-5.895801317495821,6.210830168305808,5.061011989142258,-31.908170270118646,47.639283509517625
0.8006800844124491,-6.214883020197008,6.261440288197231,5.537404824237434,-36.39807583888228,53.28417322034863
0.738531254210479,-6.578863778585831,6.316814336439605,6.070246556440921,-40.976555607285974,58.92593165674815
0.6727426164246207,-6.9886293346586905,6.377516802004014,6.659505873008403,-44.68753519734882,63.19629905760907
0.6028563230780338,-7.435504686632179,6.444111860734099,7.291468863584494,-45.48550002929361,63.19062052184828
0.5285012762117121,-7.890359686925114,6.517026549369944,7.923375068802977,-39.88013382214741,53.971085260189064
0.4495976793424609,-8.289161025146589,6.596260300057973,8.463085921404867,-24.09406048590615,30.20299944654413
0.366706069090995,-8.53010163000565,6.680891159272022,8.765115915870307,1.4004087086863897,-7.450582319417749
0.2814050527909385,-8.516097542918786,6.768542318430725,8.69061009267613,27.584420032087507,-46.27369974656543
0.19624407736175065,-8.24025334259791,6.8554484193574865,8.227873095210475,43.324991387001916,-70.54002336981394
0.11384154393577155,-7.807003428727891,6.937727150309591,7.522472861512336,46.57386701930099,-77.26906239677628
0.03577150964849263,-7.341264758534882,7.0129518789247145,6.749782237544573,42.55181067262549,-73.714486092282
-0.037641137936856195,-6.915746651808627,7.08044970130016,6.012637376621753,36.16662828539222,-66.73951642521408
-0.10679860445494246,-6.554080368954705,7.140576075066377,5.345242212369612,29.795222329290215,-59.6879691108928
-0.1723394081444895,-6.256128145661803,7.194028497190073,4.748362521260685,24.211297775249854,-53.66326525155092
-0.23490068960110755,-6.014015167909305,7.24151212240268,4.211729868745175,19.528002420172125,-48.838697520071584
-0.2950408412802006,-5.818735143707584,7.283629421090132,3.7233428935444595,15.648381892705068,-45.085344523066055
-0.3532281927172764,-5.6622513247805335,7.320862850025577,3.2724894483137987,12.434301745996992,-42.208515361672
-0.4098507059650817,-5.5379083073205635,7.353587744508715,2.850404294697079,9.76025677543705,-40.02377889039524
-0.4652297890382874,-5.440305739566193,7.382091787455686,2.4501665057931263,7.525937649311801,-38.375358891011786
-0.5196328464339492,-5.365046363073074,7.406593452513618,2.0664129168830083,5.655495676699264,-37.13590054740552
-0.57328331006468,-5.308491406306081,7.427257581682448,1.6950539114089531,4.093318744862736,-36.201405149085986
-0.6263682241277408,-5.267558218857454,7.444208120796538,1.3330398599180933,2.7995088287134426,-35.48589458563244
-0.6790438063163153,-5.239563130570319,7.457538519395719,0.9781809140617689,1.7459342183443813,-34.91710957857198
-0.7314394376220186,-5.2221037883868755,7.467320328536337,0.6290098182760491,0.9129686920076807,-34.43344484650932
-0.7836604755058874,-5.2129741014667985,7.473610426719097,0.28467536981095587,0.2868199239936249,-33.981981886549015
-0.8357902165205553,-5.2101059022268625,7.476457180417206,-0.055144449054534306,-0.1426729113315766,-33.51739197256824
-0.8878912755428239,-5.211532631340178,7.475905735926661,-0.3903183687802167,-0.38385822390100766,-33.00147120412214
-0.9400066018562256,-5.215371213579188,7.472002552238859,-0.7203330808214381,-0.44475072753515466,-32.40307860950703
-0.9921603139920175,-5.21981872085454,7.464799221430645,-1.0443638669165085,-0.33417885216126897,-31.698263765177213
-1.044358501200563,-5.223160509376152,7.45435558276148,-1.3613465045682807,-0.06259177165037175,-30.870393296320053
-1.0965901062943244,-5.223786427092656,7.440742117715796,-1.670050437531481,0.3574838478791572,-29.91012003019739
-1.1488279705652509,-5.220211588613864,7.424041613340481,-1.969151637833455,0.9113327773109285,-28.81508612919779
-1.2010300864513894,-5.211098260840755,7.404350096962147,-2.257302499125433,1.5822564090661964,-27.589309380403783
-1.253141069059797,-5.195275696750093,7.381777071970893,-2.533195592929471,2.3520366910896193,-26.242262800990513
-1.305093826027298,-5.171755329839197,7.3564451160415985,-2.7956182209393763,3.2015775042118153,-24.787712298284617
-1.35681137932569,-5.139739554797079,7.328488933832205,-3.0434953439222223,4.11162880583739,-23.242416264150904
-1.4082087748736607,-5.098623266738705,7.298053980392982,-3.2759195065637314,5.063499127044632,-21.624808874014704
-1.4591950075410478,-5.047988275468258,7.265294785327345,-3.4921675953038784,6.039675554362751,-19.953784489666727
-1.5096748902957304,-4.987591519924631,7.230373109374306,-3.6917054402005456,7.024293720788004,-18.24767766099825
-1.5595508054949767,-4.917348582716751,7.193456054972301,-3.874182216810528,8.003428387707638,-16.52349876265166
-1.6087242913221442,-4.837314298839675,7.154714232804196,-4.039417204437044,8.965202578194653,-14.796447311885865
-1.657097434310541,-4.7476622730577285,7.114320060759825,-4.187381677555903,9.899735731138858,-13.079690506904889
-1.704574057041118,-4.64866491574634,7.072446243984266,-4.318178582624952,10.798966623320648,-11.384368197018691
-1.7510607061985815,-4.540675249513134,7.029264458158017,-4.4320222645951395,11.65639433927387,-9.71976936499694
-1.7964674586937128,-4.424111306120396,6.9849442355120654,-4.5292199582451085,12.46678124545063,-8.09361900736112
-1.8407085717549168,-4.29944349366589,6.9396520359296145,-4.61015614831872,13.225857409244728,-6.51241629999701
-1.8837030066915756,-4.167184919573442,6.893550474446427,-4.67528031131869,13.930058060750403,-4.981772753471873
-1.92537485588731,-4.027884338965938,6.84679767133324,-4.7250980388534085,14.576316207425524,-3.50671031913749
-1.9656536992769695,-3.882121176891683,6.799546690944706,-4.760165142044784,15.161922698201623,-2.091892102601402
-2.0044749110458864,-3.7305019499096668,6.751945039524259,-4.781084063070797,15.684456832931959,-0.7417709723534854
-2.041779930544983,-3.573657381580347,6.70413419889355,-4.788501772794333,16.141782653562608,0.5393471243895154
-2.077516504360786,-3.412239555044721,6.656249181165607,-4.783108301550437,16.53209974225415,1.7473185964443507
-2.111638899911233,-3.2469185576221795,6.608418098150103,-4.765635115585994,16.85403294208774,2.8782423505396375
-2.144108085487455,-3.078378228201302,6.560761746994243,-4.736852692080597,17.106743035398278,3.9285855708266553
-2.174891867769468,-2.907310797847319,6.513393220073437,-4.697566836372331,17.290040060350584,4.895333594763572
-2.203964975747941,-2.7344103972438134,6.466417551709713,-4.648613500424695,17.404482466728137,5.776142330266867
-2.231309079720379,-2.560365572576532,6.419931416705467,-4.590852077122026,17.45144839706693,6.5694738205087395
-2.2569127354461447,-2.385851088605863,6.374022895934246,-4.525157338916939,17.43316957546625,7.274699438588423
-2.280771246332203,-2.2115193928512005,6.328771322545077,-4.452410344531055,17.352723041607703,7.892160184534111
-2.302886440260715,-2.0379921624351236,6.2842472190997665,-4.373488742685714,17.213980701758675,8.42317899239656
-2.323266361885066,-1.8658523554175368,6.240512331672909,-4.289256952761749,17.021520854075636,8.870025184149783
-2.3419248854392416,-1.6956371468767804,6.197619762145292,-4.2005567009202505,16.780509078153724,9.23583568149973
-2.3588812569080093,-1.5278320560952432,6.155614195136089,-4.108198344105253,16.49655792449284,9.524500926062453
-2.3741595774689617,-1.3628664768503147,6.114532211695037,-4.012953334844629,16.175575647950595,9.740525481195935
-2.3877882422374648,-1.2011107203708087,6.0744026783465905,-3.9155480800326696,15.823613914076907,9.888874007102928
-2.3997993494411727,-1.0428745812300395,6.035247197546264,-3.81665933996164,15.446723202433434,9.974812884282333
