th1 (rad),w1 (rad/s),th2 (rad),w2 (rad/s)
2.741121830631868,2.262623188242717,3.820632394139624,2.992135720631097
2.763748062514295,2.2596908404269884,3.850553751345935,3.0099279046469203
2.7863449709185653,2.2592568594929534,3.8806530303924043,3.0287350055159266
2.808937539513495,2.261417842426743,3.9109403804475638,3.0483991748841532
2.8315517179377623,2.2662666502902202,3.9414243721964053,3.0687609740063815
2.8542143844406644,2.273892277979757,3.972111981936469,3.089658829032295
2.876953307220462,2.284379690952824,4.003008570226792,3.1109284192398268
2.89979710412999,2.29780962910951,4.034117854419191,3.1324019995796553
2.922775200421085,2.314258378245622,4.065441874414987,3.1539076596072135
2.9459177842035413,2.3337975098537505,4.0969809510110595,3.1752685217230683
2.969255759302079,2.3564935905674598,4.12873363622829,3.19630188262667
2.9928206952077536,2.38240786325196,4.160696655054557,3.2168183030170217
3.016644773840273,2.4115959026733966,4.192864838084727,3.236620651847853
3.040760732867007,2.4441072498597434,4.2252310446032055,3.255503112860667
3.0652018053656045,2.479985030729718,4.257786075731812,3.273250162666367
3.0900016556729017,2.519265566340936,4.290518577358476,3.289635531306558
3.115194311336311,2.561977984220034,4.323414932671541,3.3044211579696783
3.1408140911785116,2.6081438427062653,4.356459144251239,3.317356156321774
3.1668955296055743,2.6577767830799566,4.389632705814456,3.328175805676958
3.1934732974363738,2.7108822274635194,4.422914463871226,3.3366005858976804
3.220582119711009,2.767457144070031,4.456280469730203,3.342335275374747
3.2482566911517092,2.827489905314918,4.48970382248395,3.3450681325581537
3.2765315902048586,2.8909602685677522,4.523154503809532,3.3444701821270115
3.305441192890536,2.9578395138558995,4.556599205630802,3.340194626800183
3.335019588029095,3.0280907775760344,4.590001151898804,3.3318764047623386
3.3653004958048554,3.101669626144272,4.6233199159464275,3.319131910440031
3.3963171920662982,3.178524918428824,4.656511235050828,3.3015588926020665
3.4281024412505863,3.2586000106598165,4.689526823976848,3.278736538142406
3.4606884413571843,3.3418343621963147,4.722314189358272,3.250225742078319
3.4941067849791474,3.428165604954944,4.7548164467790555,3.215569553905093
3.5283884410286968,3.5175321433909326,4.786972142318106,3.1742937771554383
3.563563762462606,3.609876355626099,4.81871508008966,3.125907682534399
3.599662526018867,3.7051484696392474,4.849974156915004,3.06990477515592
3.6367140107152593,3.8033111914254683,4.8806732046665635,3.005763533176173
3.674747122629514,3.9043451647937433,4.910730839998325,2.932948008738408
3.7137905742774517,4.008255345128578,4.940060320085709,2.850908153243864
3.7538731277287374,4.1150783720557325,4.968569401618147,2.759079698771734
3.7950239114492947,4.224891028369316,4.996160198605865,2.6568833981435134
3.837272821732988,4.337819874108753,5.0227290325873,2.543723401278778
3.8806510204740756,4.454052143520073,5.048166266600088,2.4189845310891576
3.9251915419092764,4.573847984855739,5.072356111910979,2.2820282280461814
3.970930021757834,4.697554100659586,5.095176394191441,2.1321869750670532
4.01790556276443,4.825618794303053,5.116498263942112,1.9687571208450878
4.06616175070746,4.958608319335836,5.136185835150562,1.7909902364776351
4.115747833900818,5.09722421153723,5.1540957375153384,1.5980835461262466
4.16672007601619,5.242320869980257,5.170076572976601,1.389170702863692
4.219143284715993,5.394921885073692,5.183968280005238,1.1633154687120213
4.27309250356673,5.556232212311835,5.195601434692358,0.9195131031633064
4.328654825689848,5.727640783353286,5.20479656572399,0.6567081488578541
4.385931233523381,5.910703723571082,5.211363647212568,0.3738439672697688
4.445038270759092,6.107090689628003,5.215102086885266,0.06997066099571841
4.506109177655372,6.318463951159183,5.215801793495223,-0.25554332587711703
4.5692938171669635,6.546239137257021,5.213246360236452,-0.6026211626112592
4.6347562085395335,6.791146169136716,5.2072201486103395,-0.9697918741602001
4.702667670230901,7.052472545631907,5.197522229868738,-1.3530423278755308
4.77319239568722,7.326852309341772,5.183991806589982,-1.744019419708469
4.846460918780638,7.606537106013065,5.166551612392897,-2.1275105423411094
4.922526289840769,7.877417863368765,5.145276506969486,-2.4786229651264216
5.001300468474456,8.117878442776579,5.120490277318222,-2.7612668635443938
5.082479252902222,8.300726647640268,5.092877608682778,-2.931226149646851
5.165486519378625,8.400516761294444,5.063565347186309,-2.947184059247697
5.249491686991569,8.404888008078103,5.034093506593832,-2.7877137218811194
5.33354056707235,8.322137490558932,5.006216369375021,-2.4629150770225436
5.416761941977939,8.1773241178501,4.981587218604795,-2.009318846845528
5.498535183156441,7.9999019083331575,4.96149403013634,-1.4720652401115313
5.578534202239772,7.813234339583044,4.946773377735225,-0.8892871442554666
5.656666545635602,7.6311669504454365,4.93788050629267,-0.28651931629540306
5.732978215140056,7.459498133273943,4.935015313129716,0.32165764396308405
5.807573196472796,7.298761778316424,4.938231889569347,0.927835715877885
5.8805608142559604,7.146520071573703,4.947510246728126,1.528539564472844
5.952026014971698,6.9988310058485625,4.962795642372854,2.12211404145246
6.022014325030184,6.851085950448253,4.9840167827873785,2.707527789326349
6.090525184534666,6.698467825957982,5.011092060680642,3.283769783302785
6.157509862794246,6.536207867985203,5.04392975851367,3.8495989287558166
6.222871941474098,6.3597451264854685,5.082425747801228,4.403500029925578
6.286469392738953,6.164842710807037,5.126460748100484,4.943762441379127
6.348117819847023,5.94768470303522,5.175898372514275,5.468633486898768
6.407594666877376,5.704960401146759,5.2305847073832625,5.976517060629577
6.464644270888844,5.433932987967083,5.290349877989558,6.466196480198123
6.5189836007685145,5.132484990917397,5.35501184279154,6.937064605386915
6.570308450677689,4.799131615572169,5.424382488845409,7.389346370663043
6.6182997668334105,4.4329946292916915,5.4982759525520395,7.824300678836828
6.662629713126328,4.033733819359429,5.576518959340408,8.244390380130788
6.702967051319922,3.6014404560182056,5.658962863141716,8.65340988124065
6.738981455880104,3.1365087566577574,5.745496961954123,9.056557107588267
6.770346543446681,2.6395199628949495,5.836062533030005,9.460424469078543
6.796741743075631,2.1112059692037746,5.93066677772079,9.872851185182556
6.817853802767669,1.552619403223293,6.029395289572616,10.302505878687555
6.833379996799902,0.9657506675815661,6.132420348359491,10.757915900661764
6.843037503475718,0.3550388477596317,6.239999507366109,11.245370646803403
6.846587891953314,-0.26945534153906436,6.352453213834143,11.764660116538037
6.8438933385379235,-0.8861692319744746,6.470099814999523,12.301163864918186
6.835031646218178,-1.4530675868587426,6.593111453648705,12.813573590642909
6.820500970349591,-1.899436860898403,6.721247189555134,13.22211386385499
6.8015066017406065,-2.1328904808941735,6.853468328193684,13.416423431656778
6.7801776969316645,-2.081447365270489,6.987632562510252,13.309779668891828
6.759363223278959,-1.7531124437401147,7.120730359199171,12.916095262514657
6.7418320988415585,-1.2391128917013265,7.249891311824317,12.351612363280196
6.729440969924545,-0.6468691792456182,7.3734074354571195,11.746049436973534
6.722972278132089,-0.04762179901981012,7.490867929826855,11.177407203932994
6.722496060141891,0.525929253488522,7.602642001866185,10.673183791656006
6.727755352676776,1.063240635742852,7.709373839782745,10.233842686620948
6.738387759034205,1.5632060976395628,7.8117122666489545,9.849647127935564
6.7540198200106,2.027787728005464,7.91020873792831,9.50855956285876
6.774297697290655,2.459401591950358,8.005294333556899,9.199211764082907
6.798891713210159,2.8600182400894734,8.097286451197728,8.911778653650051
6.827491895611053,3.230964872889871,8.186404237734228,8.63808262373303
6.859801544339952,3.5729923949765627,8.27278506397156,8.371461785889087
6.895531468289717,3.8864292114728722,8.356499681830451,8.10659570583933
6.934395760404446,4.171350779763389,8.437565638888845,7.839348390572916
6.97610926820208,4.427736825476676,8.515959122794575,7.566638855055244
7.020386636456847,4.6556050413687915,8.591625511345127,7.286333328899691
7.066942686870535,4.855116876190055,8.664488844634123,6.997149649863322
7.115493855632435,5.026654082460466,8.734460341132756,6.69856558993021
7.165760396457039,5.170866497969074,8.801445997032058,6.390725568417213
7.21746906143673,5.288692934396846,8.86535325271623,6.074343102726691
7.270355990780699,5.381358233176614,8.926096683743499,5.750598859295976
7.3241695731124645,5.450350487576112,8.983602672336458,5.42103605273525
7.378673077988226,5.49738304085683,9.037813032863811,5.087456130456771
7.433646908396794,5.524346106198889,9.088687594168379,4.7518182093544645
7.488890369458782,5.533252722343444,9.136205776261923,4.416145702153659
7.544222896682217,5.5261833146107975,9.180367233283459,4.082443120058637
7.599484729828325,5.505232458438072,9.221191664484046,3.7526253103344906
7.654537054412706,5.4724606362763515,9.25871791758739,3.4284605183990053
7.70926166077547,5.429852928203445,9.29300252277138,3.1115277700262913
7.763560190057504,5.379285757498516,9.324117800471642,2.803188241861889
7.817353047632489,5.3225020818049975,9.35214968289026,2.504569593088037
7.870578068450539,5.261094815992376,9.37719537882114,2.216561707772596
7.923189016610462,5.196497813489538,9.399360995898865,1.9398219625269582
7.975153994745358,5.129983421462208,9.418759215524135,1.6747879832225625
8.02645382895998,5.062665451290673,9.43550709535636,1.4216958668378241
8.077080483472887,4.995506349390115,9.449724054024738,1.1806019880038232
8.127035546966788,4.929327388909469,9.461530073904777,0.9514067469990517
8.176328820855883,4.864820802746205,9.471044141374767,0.7338789092201634
8.224977028883345,4.8025629163123975,9.47838293046697,0.5276795021183085
8.273002658046469,4.7430274916594195,9.483659725488153,0.33238454778461224
8.320432932963064,4.686598644608683,9.486983570965998,0.1475061994778821
8.36729891940915,4.633582830114484,9.488458632960777,-0.02748789195336271
8.413634747710294,4.584219499583296,9.488183754041243,-0.19315693420850538
8.459476942706127,4.538690112799567,9.486252184699158,-0.3500708378596718
8.504863843834123,4.497125235521888,9.48275147632056,-0.49879515844866673
8.549835096189343,4.459609474085514,9.477763524736073,-0.6398766165519092
8.594431190930198,4.426183996564459,9.471364758570553,-0.7738285719920274
8.638693030895842,4.396846377393618,9.463626472850633,-0.9011157550731045
8.682661494669778,4.3715474977764766,9.454615315299902,-1.0221375320953943
8.726376969647543,4.35018526852741,9.444393939978948,-1.1372090395578245
8.769878822332817,4.332595063129903,9.433021849583369,-1.2465397222247925
8.813204772964117,4.318537026451198,9.42055645236112,-1.3502092477251553
8.856390143228628,4.307680950240431,9.407054359883869,-1.4481415693641317
8.899466952731032,4.299590280027381,9.392572944190228,-1.540079205793542
8.942462855531305,4.293708105884851,9.377172152132292,-1.6255616890831697
8.985399936590154,4.289349638044901,9.360916535241461,-1.7039145163406717
9.028293432970603,4.285707364380215,9.343877390078054,-1.77425736738371
9.071150506614405,4.281876102702784,9.326134816404217,-1.8355417741854427
9.113969267641433,4.2769043117576535,9.307779398662362,-1.88662715052997
9.15673831075901,4.269873971115026,9.288913127157063,-1.9263982047868584
9.199437050470161,4.260003451605544,9.269649145109193,-1.953915382878892
9.242037084986217,4.246757421625527,9.250109991280404,-1.968575075749375
9.284504659202472,4.229939047247894,9.23042424052291,-1.970243732634078
9.326804049674951,4.209738165103156,9.210721803196568,-1.9593278050022618
9.368901431325982,4.186718336039586,9.191128525146546,-1.936754766773787
9.410768614686377,4.1617435612498275,9.171760977478808,-1.9038662221596343
9.452386050298875,4.135863960596429,9.152722315257211,-1.8622508581604156
9.493744689904839,4.110189945473387,9.134099806675607,-1.8135598913537159
9.534846589359573,4.085782569490674,9.11596420776207,-1.7593451836076552
9.57570441505448,4.063576984859096,9.098370755925995,-1.7009448385297983
9.61634018490307,4.044343008249121,9.081361307540696,-1.6394224788167058
9.656783614985562,4.028677202404484,9.06496708275253,-1.575552466958601
9.697070387009607,4.017016541978749,9.049211558082943,-1.5098369146693407
9.737240552429395,4.00966369262226,9.03411318893625,-1.4425401137597595
9.777337189355617,4.006816167228376,9.019687787798652,-1.3737291379095091
9.817405351027901,4.008594408460466,9.005950496419556,-1.3033133350120591
9.857491295112506,4.015066220902653,8.992917363069436,-1.23107885567044
9.897641957321532,4.026266624651743,8.980606574512732,-1.156716772669409
9.93790462356805,4.042213172655889,8.969039406786038,-1.07984479170862
9.978326755294608,4.062917246053647,8.958240958868952,-1.000023283828891
10.018955927755144,4.088391999461718,8.948240726030663,-0.9167666456042465
10.05983984774976,4.118657612892663,8.939073059574621,-0.829551016790593
10.101026423878688,4.153744411180364,8.930777549406715,-0.7378192907543905
10.142563867990491,4.193694289085979,8.923399356499171,-0.6409842195664394
10.184500810881351,4.238560758261918,8.916989514303507,-0.5384302845921152
10.22688641846397,4.288407823010534,8.911605211457585,-0.4295148933820845
10.269770496694075,4.343307798948929,8.907310062523765,-0.3135693805880225
10.313203574683564,4.403338112006042,8.904174368717884,-0.18990023389704686
10.357236955803625,4.46857705297149,8.902275366378914,-0.05779093193594312
10.40192272633334,4.539098413415928,8.901697457059555,0.08349523525724395
10.447313710467498,4.614964891225982,8.902532409412128,0.23471099689346966
10.493463359379758,4.696220128271674,8.904879519381062,0.3966192152757845
10.540425560662475,4.782879230009325,8.90884571153382,0.5699849139744856
10.588254352962569,4.874917619385244,8.914545560673565,0.7555648587587784
10.637003529156422,4.972258098469454,8.922101209261152,0.9540943534001982
10.686726110141116,5.074756034684675,8.931642152795154,1.1662709614630369
10.737473670487963,5.182182658301172,8.943304862409784,1.3927349485539273
10.789295497070976,5.294206557398599,8.957232211895324,1.6340463654586435
10.84223756264496,5.410373587438379,8.97357267554991,1.8906588671042397
10.896341298519344,5.5300855737396715,8.992479264220952,2.1628905870531137
10.95164215425674,5.652578371172063,9.014108170091482,2.4508926574805407
11.00816793796846,5.776900045856516,9.038617096666288,2.7546162669855008
11.065936938427026,5.901890142924659,9.066163259336143,3.073779460115447
11.124955839856272,6.026161182557918,9.096901053937298,3.4078351710978323
11.18521745168185,6.148083662321898,9.130979405648276,3.7559422122956914
11.246698288305069,6.265775919027016,9.168538827771233,4.116941068756655
11.309356047495339,6.377100208535299,9.209708238458798,4.489336358057894
11.373127049580692,6.47966630172472,9.254601602039378,4.871287695265627
11.43792371259794,6.570843790559239,9.303314478992034,5.260610482596388
11.503632150503531,6.647784185115755,9.355920583817998,5.654787881732171
11.570109992354688,6.707453798997034,9.412468462635319,6.050995007857532
11.637184530344658,6.746678389762993,9.472978412713895,6.4461362952874515
11.704651314242287,6.762200525702583,9.537439775666769,6.836897080344812
11.772273319499313,6.7507506094502,9.605808746470217,7.219810711155968
11.839780825593815,6.709132244934884,9.678006853581776,7.591342803086585
11.906872148043163,6.6343219630035835,9.753920281612642,7.947994371359564
11.9732153676732,6.523581977682699,9.833400225326237,8.286425157993728
12.038451187450027,6.374582447983669,9.916264476906175,8.60359718893823
12.102197011929864,6.185526667867231,10.002300448795557,8.896936233950887
12.164052278608535,5.955268996445833,10.091269811135065,9.164505467206139
12.223604968572994,5.683411835712908,10.182914865807128,9.405181734914246
12.280439086930123,5.37036554706165,10.27696668315627,9.618821380723372
12.33414274240074,5.017354957347541,10.373154896963502,9.806400833047537
12.384316291974216,4.6263588568083716,10.471218905293977,9.97011837215938
12.430579880542298,4.199974753203251,10.570920089015571,10.113448431056376
12.472579628074332,3.741209249399528,10.672054573326134,10.241148300579637
12.509991720568326,3.2532029470688424,10.774466056331931,10.359228019566428
12.542523750039015,2.7389054789399045,10.878058336527596,10.474905570460537
12.569912804828414,2.200719212790057,10.982807392232202,10.596579109262787
12.591919996956314,1.6401286649394695,11.088773183324829,10.733854018241619
12.608321283605708,1.057328092066399,11.196111723507245,10.89766351043159
12.618894564526371,0.45085665483248394,11.305088358611561,11.100514406104033
12.623403131074696,-0.18274054027499687,11.416093502672602,11.356865400297261
12.621575725671946,-0.8491617872488806,11.529662156675576,11.683575740090319
12.613084107799457,-1.5563017979247724,11.646497914076479,12.100168786251446
12.597521089820209,-2.3133056301447006,11.767499601938994,12.628125817983085
12.574388033518762,-3.1270919774430292,11.893780860118824,13.287031671121643
12.543117113744332,-3.99228255110228,12.02665117683004,14.082039135003518
12.50319428823331,-4.866118636811139,12.167471568180074,14.970967350781235
12.454533101865199,-5.619921860803752,12.317181241687887,15.798762404663726
12.39833388325716,-5.999464551364615,12.475168865734524,16.242143474311714
12.338339237743515,-5.747026752988488,12.63759030047764,15.971747389681198
12.28086897021363,-4.922625151628507,12.797307774374453,15.079641578612746
12.231642718697346,-3.876170802338182,12.94810419016058,14.027575761033706
12.192881010673965,-2.85709924844769,13.088379947770918,13.123880807147378
12.164310018189488,-1.9335232789222956,13.219618755842392,12.433947154150207
12.144974785400265,-1.0984473058590436,13.343958227383894,11.930200443901494
12.133990312341675,-0.33010189164197923,13.46326023182291,11.571062163200104
12.130689293425256,0.39088757499694116,13.57897085345491,11.32097806077106
12.134598169175225,1.0785729407501043,13.692180634062622,11.152295809136454
12.145383898582727,1.7421175063314849,13.803703592153987,11.043439474912208
12.162805073646043,2.3867139848020047,13.914137986903109,10.976949552679084
12.186672213494063,3.014380909626516,14.0239074824299,10.938040874113902
12.216816022590328,3.6245920733308545,14.133287891171038,10.913677241086113
12.253061943323637,4.21480561618578,14.2424246635819,10.892056089308436
12.295209999485495,4.780959931050922,14.351345224474985,10.862402316705982
12.343019598796005,5.317977684139555,14.459969247642045,10.814985499646687
12.3961993756374,5.82028854050356,14.568119102638512,10.74128111458329
12.454402261042436,6.282353033085822,14.675531913784345,10.634197257258876
12.517225791373294,6.699149724961123,14.781873886356934,10.48829141627752
12.584217288622906,7.066579903685083,14.88675680051971,10.299913547197978
12.654883087659757,7.381750483119115,14.989755935991688,10.067234082134028
12.728700592490949,7.643114332473877,15.090428276813029,9.790145209189069
12.805131735815687,7.850471648040003,15.18832972890492,9.470053318402275
12.883636452296088,8.004858272818554,15.283030262088943,9.109601863980274
12.963685035024273,8.108360618799837,15.374126280728746,8.712371997224421
13.044768641212272,8.16389945278612,15.46125000070099,8.282603063929285
13.126407635740133,8.175017774144358,15.544076031340282,7.824960583476251
13.208157813481577,8.145695448062376,15.622325637175045,7.344361671476174
13.2896147679622,8.080199750228559,15.695769253889807,6.84585243822932
13.370416765464487,7.982970002083241,15.764227778272101,6.334521974242966
13.45024646548532,7.8585277705286485,15.827572998014531,5.815434055399776
13.528831743190606,7.71140185649075,15.885727338568529,5.293559826978795
13.605945761755514,7.546058658254771,15.938662936838316,4.773700642408895
13.681406348338061,7.366832123570709,15.986399943262406,4.260397800334701
