th1 (rad),w1 (rad/s),th2 (rad),w2 (rad/s),a1 (rad/s^2),a2 (rad/s^2)
3.8332641789558415,-2.125156275994937,1.5173987847394523,-0.37531578847520564,5.202602119877482,-2.938892186356414
3.8120126161958923,-2.0731302547961623,1.5136456268547003,-0.40470471033876976,4.932352538408715,-3.2940871486929892
3.791281313647931,-2.023806729412075,1.5095985797513125,-0.4376455818256997,4.671641459412342,-3.6296555423863848
3.77104324635381,-1.9770903148179517,1.5052221239330554,-0.4739421372495635,4.419287419973844,-3.9466338078276135
3.7512723432056303,-1.9328974406182133,1.5004827025605598,-0.5134084753278396,4.174114787856019,-4.246052469864027
3.731943368799448,-1.8911562927396532,1.4953486178072815,-0.5558690000264799,3.9349673648345336,-4.528918580603033
3.7130318058720517,-1.8518066190913078,1.4897899278070166,-0.6011581858325102,3.700718514705654,-4.796203564640697
3.6945137396811387,-1.8147994339442513,1.4837783459486915,-0.6491202214789172,3.470278527876073,-5.048835265747261
3.676365745341696,-1.7800966486654906,1.4772871437339024,-0.6996085741363899,3.2425998160945615,-5.287693195193814
3.658564778855041,-1.747670650504545,1.4702910579925386,-0.752485506088328,3.0166804267462455,-5.513606157494527
3.6410880723499957,-1.7175038462370824,1.4627662029316553,-0.8076215676632732,2.791566276630866,-5.727351579757585
3.6239130338876246,-1.6895881834707738,1.4546899872550225,-0.8648950834608491,2.5663524297520244,-5.929655997797605
3.607017152052917,-1.6639246591732535,1.446041036420414,-0.9241916434388251,2.3401836812574994,-6.12119625806699
3.5903779054611844,-1.6405228223606785,1.4367991199860257,-0.985403606019495,2.1122546589086033,-6.302601081985051
3.5739726772375775,-1.6194002757715924,1.4269450839258309,-1.0484296168393454,1.8818096128337087,-6.474452711053653
3.5577786744798616,-1.6005821796432553,1.4164607877574373,-1.113174143949882,1.6481420323648626,-6.637288409759594
3.541772852683429,-1.5841007593196068,1.4053290463179384,-1.1795470280474778,1.4105942040728763,-6.791601650948605
3.525931845090233,-1.569994817278878,1.3935335760374636,-1.2474630445569639,1.1685568064244434,-6.937842847113277
3.510231896917444,-1.5583092492146335,1.381058945591894,-1.3168414730280966,0.9214686226260386,-7.0764195225964235
3.4946488044252977,-1.5490945629883732,1.367890530861613,-1.387605668254061,0.6688164431577194,-7.207695847549242
3.479157858795414,-1.542406398556796,1.3540144741790723,-1.4596826267295533,0.41013522230927985,-7.331991475858285
3.4637337948098463,-1.5383050463337031,1.3394176479117768,-1.533002541488136,0.14500854788238268,-7.449579647238429
3.4483507443465093,-1.5368549608548794,1.3240876224968954,-1.6074983379605203,-0.1269305206338676,-7.560684529202435
3.4329821947379604,-1.538124266061218,1.3080126391172902,-1.6831051832525448,-0.40599819335478704,-7.66547778846475
3.4176009520773483,-1.5421842479947658,1.2911815872847647,-1.7597599611371924,-0.6924582219758569,-7.764074394231657
3.4021791095974008,-1.5491088302145244,1.2735839876733928,-1.837400705079509,-0.9865196575494037,-7.856527668417966
3.3866880212952557,-1.5589740267900185,1.2552099806225976,-1.9159659817636885,-1.2883340542737638,-7.942823610707609
3.3710982810273555,-1.571857367332756,1.2360503208049607,-1.9953942178707647,-1.5979920863408568,-8.022874540094445
3.355379707354028,-1.5878372881961647,1.216096378626253,-2.075622963271709,-1.9155195539841527,-8.096512109611925
3.3395013344720663,-1.6069924837360061,1.195340148993536,-2.1565880843678285,-2.24087276671895,-8.163479767846514
3.3234314096347064,-1.6294012114031957,1.1737742681498577,-2.2382228820462937,-2.573933306819239,-8.223424759922347
3.3071373975206746,-1.655140544471388,1.1513920393293948,-2.320457129645517,-2.9145021947126035,-8.275889782237298
3.2905859920759606,-1.6842855664185141,1.1281874680329396,-2.40321602746789,-3.262293500480064,-8.320304429478472
3.2737431364117753,-1.7169085014233147,1.1041553077582607,-2.486419071762675,-3.616927472163048,-8.355976599313164
3.2565740513975423,-1.7530777761449452,1.0792911170406339,-2.569978837755807,-3.9779232820486836,-8.382084049351606
3.239043273636093,-1.792857008965432,1.0535913286630758,-2.6537996782493227,-4.344691526208877,-8.397666331901442
3.2211147035464385,-1.836303924227521,1.0270533318805826,-2.737776341568337,-4.716526649652985,-8.401617363677472
3.2027516643041634,-1.8834691907240508,0.9996755684648992,-2.8217925152051118,-5.092599508449366,-8.392678918527377
3.183916972396923,-1.9343951858085444,0.9714576433128481,-2.9057193043903857,-5.4719503195210795,-8.369435359402027
3.1645730205388376,-1.9891146890037552,0.9424004502689443,-2.989413657984406,-5.853482286422202,-8.330309948710973
3.1446818736488003,-2.047649511867977,0.9125063136891002,-3.0727167574715155,-6.235956222576092,-8.273563090810459
3.1242053785301205,-2.110009074093738,0.881779146114385,-3.15545238837962,-6.617986518970677,-8.197292863186297
3.103105287789183,-2.176188939283445,0.8502246222305888,-3.237425317011483,-6.998038817460454,-8.099438180171337
3.0813433983963483,-2.2461693274580496,0.8178503690604739,-3.318419698813196,-7.374429749641293,-7.97778490105952
3.0588817051217676,-2.3199136249544625,0.784666172072342,-3.3981975478237914,-7.745329080785688,-7.829975139975681
3.035682568872223,-2.397366915762319,0.7506841965941041,-3.4764972992235483,-8.108764555052435,-7.653519955565457
3.0117088997145998,-2.4784545613128435,0.7159192236018687,-3.553032498779203,-8.462629669643661,-7.445815493904577
2.9869243541014714,-2.56308085800928,0.6803888986140766,-3.6274906537182487,-8.804694511024916,-7.204162529879853
2.9612935455213787,-2.651127803119529,0.6441139920768941,-3.6995322790170473,-9.132619667501599,-6.925789205830583
2.9347822674901836,-2.7424539997945447,0.6071186692867236,-3.768790171075353,-9.443973094394634,-6.60787661063542
2.907357727492238,-2.836893730738491,0.5694307675759701,-3.834868937181707,-9.736249659792103,-6.247586691398704
2.878988790184853,-2.934256227336412,0.531082078204153,-3.897344804095694,-10.006892953802975,-5.842091861816304
2.849646227911489,-3.034325156874442,0.49210863016319606,-3.955765722713857,-10.253318820297912,-5.388605588802366
2.819302976342745,-3.136858345077421,0.4525509729360575,-4.009651778601881,-10.472939989103743,-4.8844132276839165
2.7879343928919704,-3.2415877449684585,0.4124544551500387,-4.05849591087872,-10.663191172983915,-4.3269024627809864
2.7555185154422857,-3.348219656698298,0.3718694960412515,-4.101764935506529,-10.821554072480772,-3.713592918842648
2.7220363188753027,-3.4564351974231053,0.3308518466861862,-4.138900864694956,-10.94558192536642,-3.042164857667283
2.6874719669010716,-3.5658910166767694,0.28946283803923667,-4.169322513271629,-11.03292356238812,-2.310487370147865
2.651813056734304,-3.676220252300651,0.2477696129065204,-4.192427386973107,-11.081347392987453,-1.5166471071364636
2.615050854211298,-3.7870337262305256,0.2058453390367893,-4.207593858044472,-11.08876633432618,-0.6589793308796243
2.5771805169489928,-3.897921389573787,0.16376940045634458,-4.2141836513532684,-11.053265385209798,0.26389614703319964
2.538201303053255,-4.0084540434258855,0.1216275639428119,-4.2115446898829365,-10.973134280786518,1.2530308359353814
2.498116762618996,-4.11818538623375,0.07951211704398253,-4.1990143815235825,-10.846908365454063,2.3090913688747206
2.4569349087566583,-4.226654469888291,0.03752197322874671,-4.175923467834835,-10.673421384478292,3.4322871172194045
2.4146683640577753,-4.333388683733074,-0.00423726144960164,-4.141600596662641,-10.451874188579431,4.622277760344928
2.3713344772204445,-4.437907425618868,-0.04565326741622805,-4.095377819059191,-10.181923220010507,5.878057925941671
2.326955402964256,-4.539726657818973,-0.08660704560681996,-4.036597239799774,-9.863791945103587,7.197817892115106
2.2815581363860664,-4.63836457727001,-0.1269730180048177,-3.9646190608786234,-9.498406968843575,8.578782281349856
2.235174490613366,-4.733348646958445,-0.16661920861360394,-3.878831238065125,-9.08755830171018,10.01703275926245
2.187841004143782,-4.824224229975547,-0.2054075209942552,-3.7786609104725004,-8.634080114024236,11.507325921890363
2.1395987618440264,-4.910565031115789,-0.2431941300989802,-3.663587651253597,-8.142044398671484,13.042923554373626
2.0904931115328687,-4.991985475102504,-0.27983000661151614,-3.5331584157098606,-7.616955536286086,14.615458741978276
2.0405732567818435,-5.068155030465364,-0.3151615907686147,-3.387003828290078,-7.065929307217725,16.21486706774449
1.98989170647719,-5.138814323537542,-0.3490316290515155,-3.224855157612633,-6.4978361546291525,17.829416187574807
1.9385035632418146,-5.203792685083833,-0.38128018062764185,-3.046560995736885,-5.923386419728368,19.44586806592699
1.8864656363909762,-5.263026549281117,-0.4117457905850107,-2.852102315077615,-5.355135899915417,21.049804711916813
1.833835370898165,-5.316577908280271,-0.44026681373578685,-2.641604267958447,-4.8073943949343745,22.62613933942153
1.7806695918153623,-5.364651852229615,-0.4666828564153713,-2.4153428745642316,-4.296028516909349,24.159820213864904
1.7270230732930663,-5.407612137398709,-0.49083628516101363,-2.1737446724255824,-3.8381628957287606,25.636714964131578
1.6729469519190792,-5.445993766355996,-0.5125737318852694,-1.9173775227842667,-3.4518000554831376,27.04464121704633
1.6184870142555192,-5.480511766910827,-0.5317475071131121,-1.6469311106138034,-3.155396751759364,28.37448884737602
1.563681896586411,-5.512065734428421,-0.5482168182192502,-1.363186222140043,-2.9674507903344285,29.621364614564946
1.5085612392421268,-5.541740242331765,-0.5618486804406506,-1.0669725759943935,-2.9061644526918458,30.785686097687567
1.4531438368188092,-5.570801886858684,-0.5725184062005946,-0.7591157150175178,-2.9892563717730267,31.874161989524325
1.3974358179502224,-5.600694450576414,-0.5801095633507698,-0.4403740951222746,-3.2339921303118384,32.9006209612194
1.3414288734444584,-5.633034371879533,-0.5845133043019926,-0.11136788551008059,-3.657495944404074,33.88668954423422
1.285098529725663,-5.669609331323573,-0.5856269831570934,0.22749900993226163,-4.277394300511457,34.862366192751054
1.2284024364124273,-5.712383274328688,-0.5833519930577707,0.5761226718597722,-5.112831162004479,35.86658747646169
1.1712786036691405,-5.7635115859487325,-0.5775907663391731,0.934788546624389,-6.1858868148240225,36.94792593130688
1.1136434878096533,-5.825370454096973,-0.5682428808729292,1.304267805937458,-7.523429432012079,38.165589162576126
1.0553897832686836,-5.900604748417094,-0.5552002028135546,1.6859236975632192,-9.159424535793567,39.59089385410961
0.9963837357845127,-5.9921989937750295,-0.5383409658379225,2.0818326361043153,-11.137703637664126,41.309339913879505
0.9364617458467623,-6.103576030151671,-0.5175226394768793,2.49492603524311,-13.515100215528495,43.42324436865828
0.8754259855452456,-6.238727032306956,-0.49257337912444815,2.929158478929693,-16.36457992035386,46.05445133991022
0.8130387152221761,-6.402372831510495,-0.4632817943351512,3.3897029923287954,-19.777238101964198,49.34552077068579
0.7490149869070711,-6.600145212530137,-0.42938476441186324,3.8831582000356533,-23.86013133017566,53.455065197626624
0.6830135347817697,-6.838746525831894,-0.3905531824115067,4.41770885201192,-28.722236618957453,58.53628998024492
0.6146260695234508,-7.1259688920214685,-0.3463760938913875,5.003071751814369,-34.42968326351204,64.67209960624324
0.543366380603236,-7.470265724656589,-0.2963453763732438,5.649792747876802,-40.886038308642455,71.7045227203007
0.46866372335667017,-7.879126107743014,-0.2398474488944758,6.366837975079809,-47.542223206364056,78.82445317087111
0.38987246227924,-8.354548339806655,-0.1761790691436777,7.155082506788521,-52.771580743097644,83.69135428453453
0.30632697888117344,-8.882264147237631,-0.10462824407579249,7.991996049633866,-52.827222191283425,80.9695275603799
0.21750433740879713,-9.410536369150465,-0.02470828357945383,8.801691325237666,-41.291164723609704,61.56877110923286
0.12339897371729247,-9.823448016386562,0.06330862967292283,9.417379036329995,-12.858027348131131,18.010046896841327
0.025164493553426842,-9.952028289867874,0.1574824200362228,9.59747950529841,25.688416395321283,-40.0677631967887
-0.0743557893452519,-9.695144125914661,0.2534572150892069,9.196801873330521,54.06337952580629,-83.90595018781468
-0.1713072306043985,-9.154510330656597,0.3454252338225121,8.357742371452375,61.679045457272395,-98.34756949446441
-0.26285233391096446,-8.537719876083873,0.42900265753703587,7.37426667650773,55.95926542278804,-93.67175198494357
-0.3482295326718032,-7.978127221855993,0.5027453243021132,6.437549156658294,46.323517891243114,-83.12107604424855
-0.42801080489036314,-7.514892042943561,0.5671208158686961,5.606338396215809,37.070921299208216,-72.8175354515367
-0.5031597253197988,-7.144182829951479,0.6231841998308542,4.878163041700442,29.313469347822892,-64.403920269161
-0.5746015536193136,-6.85104813647325,0.6719658302478586,4.234123839008832,23.051693305723404,-57.93580653787916
-0.6431120349840461,-6.620531203416016,0.7143070686379469,3.65476577363004,18.023667818212488,-53.07403914063682
-0.7093173470182063,-6.440294525233892,0.7508547263742473,3.124025382223672,13.962526702724892,-49.45148971039429
-0.7737202922705452,-6.300669258206643,0.782094980196484,2.629510485119729,10.655273362868595,-46.760318444539195
-0.8367269848526115,-6.194116524577957,0.8083900850476813,2.1619073006743372,7.944817780923205,-44.75837205678212
-0.8986681500983911,-6.114668346768725,0.8300091580544247,1.714323580106516,5.719120160300665,-43.25674157423196
-0.9598148335660783,-6.057477145165718,0.8471523938554898,1.2817561643641964,3.899655670224098,-42.10612182951001
-1.0203896050177355,-6.018480588463477,0.8599699554991318,0.8606949460690962,2.431918505382079,-41.18615179379964
-1.0805744109023703,-5.994161403409657,0.8685769049598228,0.44883342813109983,1.2780690547217473,-40.39808569307386
-1.1405160249364668,-5.981380712862439,0.8730652392411338,0.044852571200361235,0.41127186050293574,-39.66020500893837
-1.2003298320650913,-5.97726799425741,0.8735137649531374,-0.35174947888902247,-0.18870925465466354,-38.90525173354888
-1.2601025120076654,-5.9791550868039565,0.8699962701642472,-0.7408019962245113,-0.5389483183082241,-38.079223007179415
-1.319894062875705,-5.9845445699870385,0.862588250202002,-1.1215942262963055,-0.6559790645451851,-37.14095122988632
-1.3797395085755755,-5.99110436063249,0.851372307939039,-1.4930037385951687,-0.5576614129337177,-36.061976161087046
-1.4396505521819003,-5.996680974761827,0.8364422705530873,-1.853623500206039,-0.2643117010569184,-34.826307437825484
-1.4996173619295186,-5.9993240917723965,0.8179060355510269,-2.201886574584294,0.20087790678062342,-33.42978936256052
-1.5596106028472425,-5.997315312704591,0.795887169805184,-2.5361844682098993,0.8120650044419099,-31.878914952971417
-1.6195837559742885,-5.9891946626601715,0.770525325123085,-2.8549736177396134,1.5415060565419443,-30.189079459491953
-1.6794757026008902,-5.973779602094752,0.7419755889456889,-3.156864412334533,2.3606575045609604,-28.382392118674048
-1.7392134986218377,-5.950173027049143,0.7104069448223436,-3.4406883335212735,3.241430064589421,-26.485255724918222
-1.7987152288923292,-5.917758726403249,0.6760000614871309,-3.7055408907704557,4.157401866837382,-24.525961938486986
-1.8578928161563617,-5.876184707734875,0.6389446525794263,-3.9508005101553256,5.084830974503149,-22.53253481930615
-1.9166546632337105,-5.825336397989843,0.5994366474778731,-4.176125858348387,6.003363385912452,-20.530997641057866
-1.9749080272136088,-5.765302764130718,0.5576753888943892,-4.381435834758966,6.896394985042461,-18.544158350605013
-2.032561054854916,-5.696338814280294,0.5138610305467995,-4.566877418265016,7.751101944395291,-16.59092791384096
-2.089524442997719,-5.618827794836341,0.4681922563641494,-4.732786697403426,8.558194971243486,-14.686119320456145
-2.1457127209460825,-5.533245845123906,0.42086438939011517,-4.879647890607987,9.311475226723516,-12.84063170086854
-2.2010451793973216,-5.440131092856671,0.3720679104840353,-5.008054207616672,10.007275189149698,-11.061904933070599
-2.2554464903258884,-5.340058340965174,0.32198736840786857,-5.118673256947378,10.643860497114689,-9.354531173982773
-2.30884707373554,-5.2336197359940275,0.27080063583839475,-5.212218568687206,11.220854090699369,-7.7209244144990725
-2.3611832710954803,-5.121411195087034,0.2186784501515227,-5.289427812832196,11.738726388839446,-6.161970823768229
-2.4123973830463505,-5.004023931198639,0.16578417202320075,-5.351047521069878,12.19837811647757,-4.6776060291820665
-2.462437622358337,-4.8820401500338635,0.11227369681250196,-5.397823581361699,12.600827640383422,-3.267287097655584
-2.5112580238586757,-4.756031873630029,0.05829546099888497,-5.430496452338255,12.947003058630417,-1.9303450399331874
-2.558818342594976,-4.626561843043724,0.003990496475502418,-5.4497999027375865,13.237630838006607,-0.6662175888730596
-2.605083961025413,-4.494185534663658,-0.050507502551873446,-5.456462078626317,13.473207145585869,0.525428012557446
-2.65002581637205,-4.3594534632077995,-0.10507212333813662,-5.451207798500743,13.654034695298776,1.644665910833392
-2.6936203510041277,-4.222913116254812,-0.15958420132314405,-5.434761139392409,13.780306476069624,2.6913561703296045
-2.735849482166676,-4.085110051494116,-0.21393181271706813,-5.407847577689113,13.85221777567159,3.6652413746074397
-2.776700582681617,-3.9465878737374,-0.26801028849395925,-5.371195163943039,13.870089170476966,4.566074045452731
-2.816166461418991,-3.80788698203263,-0.3217222401333896,-5.325534423488511,13.834485364260269,5.393755340422905
-2.8542453312393175,-3.6695421283900274,-0.3749775843682747,-5.271596870084282,13.746317683640163,6.148468277183164
-2.8909407525232176,-3.5320789515536255,-0.42769355306911755,-5.21011218731245,13.606921411753293,6.830792258017725
-2.9262615420387537,-3.3960097374360925,-0.47979467494224204,-5.141804264732272,13.418102684605504,7.441789591571442
-2.9602216394131147,-3.2618287105900374,-0.5312127175895648,-5.067386368816558,13.182153102302829,7.983058693322301
-2.992839926519015,-3.1300071795670092,-0.5818865812777304,-4.9875557818833345,12.901833259834847,8.456752376451853
-3.024139998314685,-3.000988846968661,-0.6317621390965638,-4.902988258118816,12.580328871920315,8.86556285639381
-3.0541498867843715,-2.875185558249458,-0.6807920216777519,-4.814332629554878,12.22118492189345,9.212677597103871
-3.082901742366866,-2.7529737090305235,-0.7289353479733006,-4.722205853583839,11.828224260293698,9.501711827742895
-3.110431479457171,-2.6346914664275864,-0.776157406509139,-4.62718873530641,11.405457352417045,9.73662445013646
-3.136778394121447,-2.520636892903416,-0.8224292938622031,-4.529822490805045,10.956989530999687,9.921624215681703
-3.1619847630504814,-2.4110669975934194,-0.8677275187702536,-4.430606248648227,10.48693130028589,10.061072609724649
-3.1860954330264155,-2.3061976845905603,-0.9120335812567358,-4.3299955225509805,9.999316129410317,10.159389008703977
-3.2091574098723212,-2.2062045232964573,-0.9553335364822456,-4.228401632463941,9.498028929715254,10.220962544120168
-3.2312194551052857,-2.111224233999305,-0.997617552806885,-4.126192007022739,8.986747172776287,10.250073876685901
-3.2523316974452787,-2.021356762271542,-1.0388794728771125,-4.02369126825588,8.468895480288026,10.2508288839878
-3.2725452650679943,-1.9366678074686616,-1.0791163855596713,-3.921182979416002,7.947613572984395,10.227105189811128
-3.291911943142681,-1.8571916717388177,-1.1183282153538312,-3.818911927517891,7.425736737612358,10.182511570487705
-3.3104838598600694,-1.7829343043626942,-1.15651733462901,-3.717086811813014,6.905787463507543,10.120359588169961
-3.3283132029036966,-1.7138764297276188,-1.1936882027471403,-3.6158832159313143,6.3899765968712074,10.043646321930812
-3.345451967200973,-1.6499766637589066,-1.2298470349064534,-3.5154467527120064,5.880212231243984,9.955046776086013
-3.361951733838562,-1.5911745414464669,-1.2650015024335735,-3.4158962849511463,5.378114560309984,9.85691441148458
