th1 (rad),w1 (rad/s),th2 (rad),w2 (rad/s)
2.5577595329561316,-2.361089195135639,1.0060960538011738,-2.968427098713149
2.534148641004775,-2.458918257860528,0.9764117828140424,-2.9936036518093982
2.50955945842617,-2.5595314589459934,0.9464757462959484,-3.013024444536709
2.48396414383671,-2.662767829336891,0.9163455018505814,-3.0262314906176178
2.457336465543341,-2.7684493194538824,0.8860831869444052,-3.0327441712354433
2.429651972348802,-2.876382332470608,0.8557557452320508,-3.032061232458936
2.400888149024096,-2.9863598914504106,0.8254351329074614,-3.0236633258691494
2.371024550109592,-3.0981645188652935,0.7951984996487699,-3.0070160879143555
2.340042904920939,-3.211571903442622,0.7651283387696263,-2.9815737281096726
2.3079271858865127,-3.3263554230957046,0.7353126014885295,-2.946783064778842
2.2746636316555557,-3.4422915839198276,0.705844770840741,-2.9020879093489866
2.2402407158163573,-3.5591664241523375,0.6768238917472512,-2.846933656244038
2.204649051574834,-3.6767829192084056,0.6483545551848109,-2.7807718854799686
2.16788122238275,-3.7949694104264715,0.6205468363300112,-2.703064729818174
2.1299315282784854,-3.913589067488034,0.5935161890318295,-2.613288698871897
2.090795637603605,-4.032550384659076,0.5673833020431105,-2.510937590409385
2.050470133757014,-4.151818706644087,0.5422739261390166,-2.39552405620503
2.008951946690573,-4.2714287840752645,0.5183186855769663,-2.266579328490714
1.9662376588498205,-4.391498374960386,0.4956528922920591,-2.1236505560456007
1.9223226751002167,-4.512242940267195,0.4744163867316031,-1.9662951493484688
1.8772002456975447,-4.633991532052973,0.4547534352381184,-1.7940714958896165
1.830860330377015,-4.757204042120723,0.43681272027922224,-1.606525385361869
1.7832882899558078,-4.882490065060325,0.42074746642560357,-1.4031714898155283
1.7344633893052046,-5.010629720771818,0.40671575152744827,-1.183469294908079
1.6843570920974864,-5.142596852080671,0.39488105857836747,-0.9467930133036639
1.6329311235766797,-5.279585007906448,0.3854131284453308,-0.6923953073702461
1.5801352734976153,-5.42303643155756,0.37848917537162835,-0.41936526034197175
1.5259049091820396,-5.574673680970207,0.37429552276820865,-0.12658226917226095
1.4701581723723376,-5.736532092118921,0.37302970007648606,0.18733001215671424
1.4127928514511483,-5.910988241616366,0.3749030001980532,0.5240407086951295
1.3536829690349848,-6.100773293323999,0.3801434072850045,0.8855213005621787
1.2926752361017448,-6.308947621088931,0.3889986202906263,1.2739909475151197
1.2295857598908555,-6.538788810575977,0.4017385297657775,1.6917256904104088
1.1641978717850958,-6.793499326813128,0.41865578666988157,2.140594261644992
1.0962628785169646,-7.075558109281972,0.44006172928633147,2.6210672853144175
1.0255072974241448,-7.385408645444105,0.46627240213947563,3.130262422805795
0.9516532109697038,-7.7190173899129615,0.4975750263675336,3.6583707060344297
0.8744630370705742,-8.063831572116472,0.5341587334278779,4.182820752092223
0.7938247213494094,-8.393438857658941,0.5759869409488001,4.660670399674509
0.70989033277282,-8.664042270413253,0.6225936449455451,5.0237571437752635
0.6232499100686875,-8.820864294239106,0.6728312163832978,5.188280484362276
0.5350412671262964,-8.822406604957026,0.7247140212269205,5.090184795083872
0.4468172010767262,-8.670958478746135,0.7756158691777593,4.729738530599349
0.3601076162892648,-8.415352709160155,0.8229132544837527,4.176431267642968
0.27595408919766323,-8.11850959616594,0.8646775671601824,3.52279326176103
0.19476899323600383,-7.826611775443988,0.8999054997777927,2.839470307381947
0.11650287548156395,-7.562458638297082,0.9283002028516121,2.1645289920285187
0.04087828909859312,-7.332661161998644,0.9499454927718972,1.512990781454504
-0.03244832252139332,-7.135615446016979,0.9650754005864423,0.8880064066561744
-0.10380447698156312,-6.9663734640951445,0.973955464653004,0.28787790512817446
-0.17346821162251458,-6.818994578347043,0.9768342437042857,-0.2904380673797017
-0.241658157405985,-6.687525559885614,0.9739298630304887,-0.8498014124439395
-0.30853341300484116,-6.566348769028669,0.9654318489060493,-1.392312082088745
-0.37419690069512784,-6.450271616804658,0.9515087280851618,-1.9191620657999642
-0.43869961686317444,-6.334526896865305,0.9323171074271622,-2.4306737163972763
-0.5020448858318275,-6.214755765393813,0.9080103702631894,-2.9264183318050225
-0.5641924434857656,-6.0870006104370225,0.8787461869451392,-3.4053700138696534
-0.6250624495901358,-5.947715084999927,0.8446924868064426,-3.8660756878025766
-0.6845396004401351,-5.793789593174932,0.8060317299284169,-4.306832132106289
-0.7424774963718844,-5.622586474312301,0.762963408607354,-4.725863950228641
-0.7987033611150074,-5.431977443937294,0.7157047691050676,-5.1214967936062274
-0.8530231355543804,-5.220375456506127,0.6644898011690054,-5.492319786259925
-0.9052268901194416,-4.986753624615928,0.6095666033064061,-5.837330929297594
-0.9550944263656008,-4.730644973527395,0.5511932940134302,-6.1560596901857405
-1.0024008761008747,-4.452118505565227,0.4896326971115728,-6.4486621388516525
-1.0469220611565269,-4.151729159511478,0.4251460757230563,-6.715985843580252
-1.0884393527516416,-3.8304415934072704,0.35798621728725377,-6.959604128023734
-1.1267437686857142,-3.4895300653306247,0.28839017600701644,-7.181821965400171
-1.1616390693390204,-3.1304587843549383,0.21657195635301474,-7.385658419080917
-1.1929436571825698,-2.754748737278124,0.14271537216220556,-7.574812744482773
-1.220491144555351,-2.3638380725222823,0.06696724471737783,-7.753622614621939
-1.2441295252805737,-1.9589437845521174,-0.010568981428841565,-7.927022919704084
-1.263718963126095,-1.5409332244035303,-0.0898392106258824,-8.100511524163426
-1.2791282953701304,-1.1102160292518402,-0.1708443258675167,-8.280123026192634
-1.2902304556626487,-0.6666726577678728,-0.253645556129443,-8.472400513077067
-1.2968971822403275,-0.20964903625201664,-0.33836956126021367,-8.684333487635477
-1.2989936726028477,0.26192432618285616,-0.42521289613656843,-8.923187365604194
-1.296374429341019,0.7491719373653729,-0.5144447697926103,-9.19606687930516
-1.2888827099673654,1.2524441054164162,-0.606405438585662,-9.508900080996012
-1.2763582689132014,1.7696037730715664,-0.7014944393956221,-9.864264142508338
-1.2586622311824858,2.292773657583103,-0.8001370808207054,-10.257124337839937
-1.2357344946066546,2.802864702971654,-0.9027083241991049,-10.667483942344893
-1.207705847576938,3.2624222119116717,-1.0093831636225539,-11.050543205061599
-1.1750816254578214,3.6119015000553505,-1.11988859567317,-11.331184970986252
-1.1389626104572679,3.7821812209361623,-1.2332004453830323,-11.420197047504711
-1.1011407982479062,3.732445844025047,-1.3474024158580795,-11.264753411553782
-1.0638163398076557,3.486856486084192,-1.4600499499736173,-10.89704716396214
-1.0289477749468137,3.12122834440094,-1.5690204216132386,-10.415423800114993
-0.9977354915028043,2.7124187192330185,-1.6731746596143886,-9.916706120497551
-0.970611304310474,2.3082548676446786,-1.7723417208193641,-9.457796414005008
-0.9475287556340273,1.9294397648177417,-1.8669196849594143,-9.060042495488908
-0.9282343579858499,1.5812425111234978,-1.9575201099143034,-8.725589927380783
-0.9124219328746149,1.2621871600717303,-2.0447760091881113,-8.448950142430578
-0.8998000612738977,0.9685051878521087,-2.129265510612417,-8.2226527888981
-0.8901150093953766,0.696047274399241,-2.211492038501398,-8.039500340133761
-0.8831545366513842,0.4409934610453895,-2.2918870419027355,-7.893282985172235
-0.8787446020409303,0.20005520426952433,-2.370819871754458,-7.7788806090209075
-0.8767440499982351,-0.029518912433520006,-2.448608677844667,-7.692152368131021
-0.8770392391225703,-0.2500027581172317,-2.5255302015259775,-7.629773296570881
-0.8795392667037426,-0.46326529436199704,-2.6018279344916864,-7.589075912353568
-0.8841719196473625,-0.670837096878893,-2.677718693615222,-7.5679141931982725
-0.8908802906161515,-0.8739649842632096,-2.753397835547205,-7.564551962522906
-0.8996199404587836,-1.0736541222564644,-2.829043355172434,-7.57757256908455
-0.9103564816813482,-1.27069870436949,-2.9048190808632794,-7.605805519707026
-0.9230634687250431,-1.465702680459013,-2.9808771360603497,-7.648265902885353
-0.9377204955296332,-1.6590918720474315,-3.0573597950892033,-7.70410302132305
-0.9543114142501076,-1.8511185308909692,-3.134400825302434,-7.772555260186366
-0.9728225995590173,-2.0418591077893837,-3.2121263779042977,-7.852908735182635
-0.9932411906369111,-2.231205757891632,-3.290655465256124,-7.944457671110339
-1.0155532482158274,-2.418851941314646,-3.3701000419672273,-8.046464777280416
-1.0397417676289737,-2.604272401602261,-3.4505646897400317,-8.158120148289193
-1.0657844916449963,-2.7866978428036333,-3.5321458912229238,-8.278497475825727
-1.0936514700730326,-2.9650848146916537,-3.614930865981181,-8.406506672026595
-1.123302318219949,-3.138081707721458,-3.698995932701447,-8.540842458706353
-1.1546831352971636,-3.30399242597613,-3.7844043572885107,-8.679929174875436
-1.1877230595569248,-3.4607403330975943,-3.871203649037265,-8.821863127391808
-1.2223304628879008,-3.6058365378403145,-3.959422280311183,-8.964355401111948
-1.258388828266304,-3.7363585519846705,-4.0490658343223025,-9.104680283065418
-1.2957524137861507,-3.8489477641871668,-4.140112637152956,-9.239637382780908
-1.3342418914280223,-3.9398367789632305,-4.232509010980765,-9.365538989770963
-1.3736402592176546,-4.004919889186337,-4.326164400878475,-9.478237675824003
-1.413689458109518,-4.039880749764651,-4.420946777636715,-9.573211559611275
-1.4540882656071645,-4.040389197957983,-4.516678893232828,-9.645724313988625
-1.4944921575867443,-4.002372397249129,-4.613136136372714,-9.691071784771633
-1.5345158815592355,-3.9223527880097806,-4.710046854220431,-9.704915114278641
-1.5737394094393333,-3.797826994980089,-4.807096005363217,-9.683681118246446
-1.6117176793891341,-3.6276389452334445,-4.903932816545682,-9.624986932652359
-1.6479940688414685,-3.412283354908367,-5.000182685872206,-9.528024054223106
-1.6821169023905522,-3.1540708040200007,-5.095462926414437,-9.393826081642956
-1.7136576104307522,-2.857099661672548,-5.1894011872308665,-9.22535317557033
-1.7422286070474777,-2.5270139085654204,-5.2816547189865695,-9.027357102094125
-1.767498746133132,-2.1705714526664845,-5.371928290007511,-8.806036992535358
-1.7892044606597968,-1.7950900808659276,-5.459988659932865,-8.568542892659087
-1.8071553614684561,-1.407862714669136,-5.545674088859456,-8.322415440649724
-1.8212339886151474,-1.0156323142027694,-5.628898243265953,-8.075055680553048
-1.831390311757175,-0.6241924862080848,-5.709648800071483,-7.833300019843035
-1.837632236619256,-0.23814370730954215,-5.787981800269914,-7.603141731995482
-1.8400136736923514,0.13919987516929,-5.864013217589869,-7.389605306551745
-1.8386216749406585,0.5057826454138239,-5.937909270655386,-7.196753459533066
-1.8335638484865202,0.860699427695155,-6.009876805250717,-7.027792916221646
-1.8249568542095687,1.2040475902856598,-6.080154734412933,-6.8852430627312735
-1.8129163783067122,1.5367727545495986,-6.1490071650402465,-6.7711373354668085
-1.7975486507612162,1.8605320016660014,-6.216718538394915,-6.687236535548368
-1.7789433307445561,2.1775896014115736,-6.283590903750398,-6.6352429452489705
-1.7571674347304405,2.490753583148981,-6.349943333202888,-6.617012422560801
-1.7322598988989506,2.803357193739775,-6.416113457428496,-6.634767872477483
-1.7042263269615527,3.119286851898636,-6.482461136153271,-6.691321403122425
-1.6730334584425663,3.443056298711852,-6.549374350184495,-6.790313484964703
-1.638602895455448,3.7799227806025337,-6.617277485034142,-6.936473395898133
-1.6008036676494226,4.13603010815583,-6.686642218993123,-7.135890037570093
-1.5594433665678644,4.518533549210506,-6.758001119368824,-7.396240257214102
-1.5142580310757594,4.935585210174889,-6.831963521940965,-7.726815200981105
-1.4649021789740104,5.3958722620413635,-6.909231673950776,-8.137925260211476
-1.4109434563535967,5.9069667535935775,-6.990610926552891,-8.63865801280986
-1.351873788817661,6.470823923753327,-7.076997506680989,-9.230670584827896
-1.2871655495801277,7.073232087995596,-7.169304212529268,-9.893534101289813
-1.2164332287001718,7.663485129408141,-7.268239553542166,-10.5563497970925
-1.1397983774060905,8.129925376176985,-7.373803051513091,-11.063373655077784
-1.0584991236443206,8.31337121114985,-7.484436788063869,-11.192173436641358
-0.9753654115328221,8.122089804766441,-7.5963585224302825,-10.81312904315089
-0.8941445134851577,7.652720639630605,-7.704489812861792,-10.05688915103206
-0.8176173070888516,7.0985846775681445,-7.8050587043721125,-9.186451091338814
-0.7466314603131702,6.586574005356364,-7.896923215285501,-8.37211034026411
-0.6807657202596066,6.157392733957885,-7.9806443186881415,-7.665727523744235
-0.6191917929200277,5.810847338744994,-8.057301593925583,-7.0637611364221975
-0.5610833195325777,5.5352355617778075,-8.127939205289806,-6.547557157063954
-0.5057309639147997,5.318131293777289,-8.193414776860445,-6.097883216155128
-0.45254965097702676,5.149202973896582,-8.254393609021996,-5.698588191587608
-0.40105762123806094,5.020479701328454,-8.311379490937872,-5.336849031602259
-0.35085282422477637,4.925965369578132,-8.364747981253895,-5.002592880795145
-0.30159317052899504,4.861172410104169,-8.414773910061847,-4.687862400286085
-0.25298144642795334,4.8227172910240625,-8.461652534064708,-4.386312794765978
-0.20475427351771272,4.807992721690857,-8.505515662012368,-4.09286201848211
-0.15667434630080415,4.814899177407566,-8.54644428219719,-3.8034756322895884
-0.10852535452672848,4.84161443929043,-8.584479038520085,-3.5150636990865123
-0.060109210133824184,4.886384029262148,-8.61962967551095,-3.2254704563318577
-0.011245369841202703,4.947322119397424,-8.651884380074268,-2.93353935765896
0.03822785135277154,5.022220662564147,-8.681219773650858,-2.6392335386629124
0.08845005797841302,5.108374123463492,-8.707612109037488,-2.343784132304237
0.13953379921304793,5.2024378123043995,-8.73104995036053,-2.049827076529843
0.19155817733609193,5.30034760590742,-8.751548221125828,-1.7614762770837016
0.2445616533951661,5.397334230509995,-8.769162983896665,-1.4842730768689103
0.2985349957002661,5.488061639810917,-8.784005714665355,-1.2249567323784056
0.35341561209837524,5.566902713813227,-8.796255281989138,-0.9910247257654987
0.4090846392365075,5.628337011429725,-8.806165529246794,-0.7900960261287084
0.46536800935080475,5.667421518213148,-8.81406648950808,-0.6291456195158283
0.5220422245329362,5.680258388985592,-8.82035794570324,-0.5137263065571442
0.5788448084227922,5.66437554757935,-8.82549520876881,-0.4473139441028747
0.6354885638985857,5.618951507046262,-8.829968348209839,-0.43089447445678947
0.6916780789690483,5.544849429172188,-8.834277292954408,-0.46286071144338065
0.7471265732607701,5.444464772399502,-8.838905900068841,-0.539222158176528
0.8015712209847652,5.321423574736885,-8.844298121650606,-0.6540728227427988
0.854785456732134,5.18018776340467,-8.850838849878034,-0.8002239435852811
0.9065873343661808,5.025629317078242,-8.858841089313888,-0.9698949135399098
0.9568436275369632,4.862629474739439,-8.868540038449288,-1.1553636461297727
1.0054699222843575,4.6957460366765496,-8.880093674910585,-1.3495010779808319
1.052427382651123,4.52897447165828,-8.893588685690393,-1.5461463198272347
1.0977171273677058,4.365610347717234,-8.909050148888666,-1.7403118638377384
1.141373230844878,4.208204819608018,-8.926453267527043,-1.928235731239578
1.1834552790409583,4.058594085151816,-8.945735624839438,-2.107315176214977
1.2240412198924764,3.9179789146994444,-8.966808776601587,-2.2759633678467184
1.2632210090394709,3.787030931119771,-8.989568410280054,-2.433428118223109
1.3010913183506685,3.666006498309356,-9.013902691462285,-2.5796036765493726
1.337751383333762,3.554854802548566,-9.039698728227778,-2.714856497913246
1.3732999313592475,3.4533123214584864,-9.06684729320691,-2.8398764430856804
1.4078330545738325,3.3609804025315877,-9.095246057637768,-2.9555575235350307
1.4414428585991483,3.2773857952075383,-9.124801632873119,-3.0629074410202053
1.4742167165512237,3.2020258031857574,-9.15543070728332,-3.1629824826184314
1.5062369745830813,3.134400550621299,-9.187060532109506,-3.2568432446602027
1.5375809800892943,3.074035023293814,-9.219628964556108,-3.3455265862997225
1.5683213303222325,3.020493336370411,-9.253084230419105,-3.430029683783522
1.5985262636859368,2.9733872952609115,-9.287384527256942,-3.511302744340688
1.6282601366385459,2.9323808801521856,-9.322497554700348,-3.590247646183284
1.6575839454400678,2.8971918641479624,-9.358400031162182,-3.667720393220702
1.6865558640815475,2.8675913954407437,-9.395077235094389,-3.7445357628797096
1.715231778035955,2.843402036236822,-9.432522592723187,-3.8214728672188003
1.7436657983983233,2.824494440473471,-9.470737321395374,-3.8992805379028117
1.771910742803058,2.810782544001644,-9.509730126774402,-3.97868148084685
1.8000185682430745,2.8022168024386938,-9.549516941582871,-4.060374014347276
1.8280407362674613,2.7987746035376304,-9.590120681726344,-4.145029879747066
1.8560284823028377,2.800446455750402,-9.631570980523815,-4.233286055135873
1.8840329468603416,2.8072158617229306,-9.673903841075173,-4.325727657353251
1.9121051054775708,2.819029881568821,-9.717161117648706,-4.422857837009693
1.940295404293259,2.835756272724814,-9.761389696018803,-4.525049055407691
1.968652967020507,2.857121872270646,-9.80664018657288,-4.632468432674853
1.9972241857432136,2.882625942956587,-9.852964870899628,-4.7449684883816765
2.0260504451727797,2.9114224628171907,-9.900414555783446,-4.861934827139845
2.0551646698009516,2.942168702625008,-9.949033904054843,-4.982086769089149
2.084586356827202,2.972847219718528,-9.998854771745735,-5.1032401700388474
2.114314829024387,3.0005891449077517,-10.049887173446123,-5.222070030635639
2.144320720473465,3.0215617015400946,-10.10210787375248,-5.333958663596541
2.174536337488866,3.031027161410465,-10.155447460388446,-5.43307620012137
2.2048466091029706,3.02370766834375,-10.20977822238966,-5.512877823425632
2.235083685786408,2.9945458730843773,-10.264907000623916,-5.567140663446645
2.2650291445172517,2.9397808041650095,-10.320578407258383,-5.591427791718713
2.2944269525589016,2.8579956851497665,-10.37649268517557,-5.584504924971867
2.3230069094103993,2.7506341151658606,-10.432337734425289,-5.549017767254437
2.350513250562058,2.621654947695245,-10.487827912097833,-5.490984031221444
2.3767298000390107,2.4764641080772885,-10.542737752410048,-5.418303325901264
2.4014944411197834,2.3206443380610855,-10.596920785669061,-5.339011399678054
2.4247008845003943,2.1589922858399846,-10.650310899665842,-5.259978433582373
2.4462908073587943,1.9950669608535985,-10.702910684001665,-5.186321709028809
2.46624147696733,1.8311646820684253,-10.754773901091953,-5.121404206818493
2.4845531237880145,1.6685262626447768,-10.805987943160138,-5.067144744130935
2.5012383864144625,1.507612422046024,-10.856659390601449,-5.024412147811124
2.5163145106349227,1.3483561746082722,-10.906903512079559,-4.993379231648258
2.5297980723810056,1.1903592363291031,-10.956837304396041,-4.973793528408219
2.5417016647442967,1.0330311397077552,-11.006575239680123,-4.965165031903865
2.5520319761413743,0.8756819089564296,-11.056226889999161,-4.9668873063880605
2.5607887952309385,0.7175811867793518,-11.105895763063042,-4.97831051890382
2.567964607098732,0.5579947977786213,-11.15567886825208,-4.998781877396311
2.573544555076518,0.3962069402752614,-11.205666687026044,-5.0276648215304585
2.5775066244792706,0.23153370547516647,-11.255943335241348,-5.064344710752371
2.579821961534022,0.06333173335342532,-11.306586782348871,-5.108226064752513
2.5804552788675563,-0.10899550971630029,-11.357669042996397,-5.158724556666653
2.5793653237703933,-0.2859922377247908,-11.409256288563064,-5.215255742625361
2.5765054013931454,-0.4681446320376613,-11.461408845989318,-5.277221745040636
2.5718239550727686,-0.6558742971333659,-11.514181063439725,-5.343996646938639
2.5652652121014348,-0.8495305442617371,-11.567621029909112,-5.414911099642833
