th1 (rad),w1 (rad/s),th2 (rad),w2 (rad/s)
4.0850166593660235,0.9358290754995202,3.719339502953371,-0.8375307747949302
4.0943749501210185,1.0273831920398373,3.7109641952054218,-0.8663783744875359
4.104648782041417,1.1188617598238895,3.7023004114605462,-0.8944344457531865
4.115837399639656,1.2101689537442932,3.6933560670030143,-0.9214332043417175
4.127939089177098,1.30119938937959,3.684141734959597,-0.9470842808738238
4.140951083070894,1.3918411121593692,3.674670892150859,-0.9710761207501022
4.154869494192488,1.4819791366030528,3.6649601309433577,-0.99308020306476
4.169689285558519,1.5714994061824996,3.6550293289127103,-1.0127559065136187
4.185404279620344,1.6602930011247163,3.644901769847574,-1.029755788004114
4.202007209631591,1.74826038882657,3.634604211967533,-1.043730991840577
4.219489813519857,1.8353154946887726,3.624166902049127,-1.0543364815197132
4.237842968466745,1.9213893735219465,3.61362353723393,-1.061235787476394
4.257056862201964,2.0064332840826378,3.6030111793591657,-1.0641049941300957
4.277121195042791,2.0904210096748144,3.5923701294178647,-1.0626357457344084
4.298025405139539,2.1733503213218976,3.5817437719605207,-1.056537126438768
4.319758908352758,2.2552435401127315,3.571178400696133,-1.0455363565282434
4.342311343753885,2.3361472145980136,3.5607230371308503,-1.029378333845029
4.365672815899866,2.4161309807948745,3.5504292537924,-1.0078241274726554
4.389834125707814,2.4952857113300504,3.5403510125176734,-0.9806485926708854
4.414786982821115,2.573721083678866,3.5305445265909645,-0.9476373177120666
4.440524193657903,2.651562704892669,3.521068153413844,-0.9085831339362614
4.467039820706829,2.7289489232577084,3.5119823220744815,-0.8632824221270974
4.494329309939406,2.8060274390172957,3.5033494978532107,-0.8115314353167203
4.522389584329579,2.8829518003236574,3.4952341835000436,-0.753122835420548
4.551219102332816,2.9598778406944706,3.487702955145838,-0.6878426137601065
4.580817880739761,3.0369600836975934,3.480824529008237,-0.6154675379422625
4.611187481576737,3.114348111915234,3.4746698536288143,-0.5357632430065064
4.6423309626958895,3.1921828721947736,3.469312221198749,-0.4484830652599573
4.674252791417837,3.270592868822967,3.4648273905461493,-0.3533677036325753
4.7069587201060665,3.349690181079142,3.4612937135098236,-0.2501457855270196
4.740455621916858,3.4295662318235753,3.4587922556545534,-0.13853541103531497
4.774751284235094,3.5102872294242085,3.4574069015442004,-0.01824674948415214
4.809854156529337,3.5918892065150274,3.4572244340493588,0.11101423643356065
4.845773048594487,3.674372586051956,3.4583345764136944,0.249540863466278
4.882516774455007,3.7576962183249103,3.460829985048357,0.397619525434732
4.920093736638256,3.8417708526360475,3.464806180302704,0.5555221531434119
4.958511445164616,3.9264520350508736,3.4703614018341384,0.7234972925177368
4.997775965515125,4.0115324598004785,3.4775963747593157,0.9017597869650814
5.037891290113129,4.09673384727508,3.4866139726289664,1.0904790940077365
5.07885862858588,4.1816984764964715,3.497518763569044,1.2897663262579948
5.120675613350844,4.265980564319017,3.510416426831624,1.4996601840086317
5.163335418994034,4.34903775638043,3.5254130286717102,1.7201120411709332
5.206825796557839,4.430223073901949,3.5426141490834198,1.950970556559412
5.251128027296858,4.508777742402726,3.562123854649014,2.1919663052757747
5.296215804720885,4.583825408376953,3.5840435177017715,2.4426970547522577
5.342054058804655,4.6543683216694705,3.608470488249294,2.7026144392946763
5.388597742021349,4.719286117077564,3.6354966326422407,2.971012906217315
5.435790603192125,4.777337860045384,3.6652067617044137,3.2470219049890754
5.483563981792578,4.827168019132719,3.6976769807543044,3.5296023567008654
5.531835661983905,4.867316983141687,3.732973004321313,3.817548463398631
5.5805088318153215,4.896236644712485,3.771148488955299,4.1094958853268375
5.629471198262446,4.912311416970593,3.8122434478085676,4.403937220546957
5.678594312432152,4.913884828616579,3.8562828200140373,4.699245559340903
5.7277331607183175,4.899291550411506,3.9032752756074465,4.993706650792309
5.776726076222433,4.866894339528411,3.9532123421153695,5.285559908450056
5.825395019617717,4.815124949331075,4.00606794119987,5.573048096340943
5.873546269111028,4.742527550035366,4.061798422163279,5.854475081332871
5.9209715446113815,4.647802661558892,4.120343172976607,6.1282705279928456
5.967449571226971,4.529849051226664,4.181625878256535,6.393059878105322
6.012748061739238,4.387800552594845,4.245556477037589,6.647737450804597
6.056626067265187,4.2210543918515935,4.3120338515456345,6.891540097447647
6.098836611183703,4.029287448838672,4.380949252520111,7.1241186465137885
6.13912948567209,3.812457007976258,4.452190438985249,7.345604486999486
6.1772540557518525,3.5707830192959764,4.525646483855244,7.556669162503528
6.212961885944813,3.3047096904106064,4.60121317548028,7.758575842843005
6.2460089828489185,3.014845303012166,4.67879893390871,7.953222999000125
6.27615743587904,2.701880374180161,4.758331163898712,8.143182432222927
6.303176239620842,2.3664855305975254,4.839762988220941,8.331735787924956
6.3268410949268175,2.0091916705208774,4.923080346100191,8.522915460737947
6.346933011632026,1.630256315441494,5.00830950070757,8.721556766902356
6.363235574786441,1.2295221620080596,5.095525068376594,8.933367317737654
6.3755307964065215,0.8062784347677894,5.18485874155397,9.165014408267114
6.3835935807542,0.3591465805777168,5.276508885636641,9.424216986179752
6.387185046559977,-0.1139623789853802,5.370751055498439,9.719794317865555
6.386045422770123,-0.6157125990199336,5.467948998677095,10.061544230887352
6.3798882967799235,-1.1487935769774968,5.568564440985968,10.459646946132967
6.368400361010148,-1.7144429341363436,5.673160910447297,10.922911671777436
6.351255931668785,-2.3089961694112784,5.7823900271650714,11.454440621259929
6.328165969974672,-2.9166176440921237,5.8969344333776705,12.042140711184715
6.298999793533751,-3.49615703293708,6.017355840489517,12.641099589077987
6.2640382232043805,-3.964570749049809,6.143766836380297,13.150775608905565
6.224392515713882,-4.197211548471464,6.275274592469352,13.414213127035675
6.182420400229168,-4.086289470599564,6.409416723739709,13.295250031099016
6.141557505523172,-3.6425991366259427,6.5423692240507,12.81302530112239
6.105131514156913,-3.0012268637247312,6.670499477061924,12.145599383788634
6.075119245519665,-2.3042621599489435,6.79195547089981,11.471818573116469
6.0520766239201755,-1.6285347936916947,6.906673656630975,10.879775219599901
6.035791275983258,-0.9985301324322493,7.015471408826974,10.388938486091005
6.025805974658936,-0.4153232532621244,7.119360793687884,9.99012539239368
6.021652742126315,0.12716035305552342,7.219262047611821,9.666689517973424
6.02292434565687,0.635781034439151,7.315928942791555,9.402190186681757
6.029282156001261,1.1161968254776988,7.409950844658372,9.18240384521448
6.040444124256038,1.5724647909272225,7.501774883110516,8.995445258589577
6.056168772165311,2.0071500803024285,7.591729335696412,8.831394554397079
6.076240272968335,2.421566192689273,7.6800432812403825,8.681884566257663
6.100455934895228,2.8160277923998573,7.766862126902959,8.539772920976437
6.128616212819226,3.190085621967053,7.852259856112723,8.398915792349332
6.160517069038897,3.542740303445739,7.936249014036217,8.254028598111816
6.1959444720733545,3.872637830792168,8.018789300017335,8.100611871613792
6.234670850381276,4.178248695148891,8.099795418733473,7.934920918854797
6.276453337332765,4.4580301170547365,8.179144627922021,7.753960299351749
6.321033638503312,4.710568761649864,8.256684230915539,7.5554872108047135
6.368139326119811,4.9347002940269284,8.332239103023586,7.338011240801485
6.417486329060081,5.129602322938899,8.405619215431601,7.100781592710594
6.46878235228947,5.294858484812797,8.476627031358706,6.843756610854342
6.5217309371375976,5.430493245481888,8.545064597467249,6.567553911418725
6.576035869592417,5.536978981352338,8.610740136581436,6.273382330292327
6.6314056594059405,5.6152186286295676,8.673473959884358,5.96295897388042
6.687557845692236,5.666508380424033,8.733103549623163,5.638415816433372
6.744222929496477,5.69248546664424,8.789487707787497,5.3022006191488025
6.801147784162919,5.695066031211641,8.842509713978986,4.956976674145329
6.8580984444750355,5.676377688482271,8.892079480720438,4.605525269420158
6.914862221359858,5.638690688845751,8.93813473341464,4.250654063706103
6.971249128248315,5.584350914699316,8.980641274051703,3.895113900859142
7.027092637395309,5.515717261815048,9.019592413060295,3.541526032262542
7.082249810013459,5.43510537185943,9.05500767338292,3.1923212282953584
7.1366008637320535,5.344739158099686,9.086930885665874,2.849691788373096
7.190048255313051,5.246711078809351,9.115427803549604,2.5155569529489834
7.242515366101144,5.1429516383861,9.140583373079094,2.1915416634417997
7.293944882485005,5.035208130962971,9.162498789713512,1.8789680310900665
7.344296963794634,4.925032202106548,9.181288470024413,1.5788583170916355
7.3935472858157,4.813775420495971,9.19707705319533,1.291947758249179
7.441685040020659,4.702591753851539,9.20999653077782,1.0187052488302928
7.488710957559174,4.5924456533745355,9.220183583266124,0.759359740388645
7.53463541409292,4.484124375312915,9.22777718067001,0.5139302476426428
7.579476657846049,4.378253198321614,9.232916483146436,0.2822575252869549
7.623259189829265,4.2753123104220245,9.235739058399306,0.06403576618798557
7.666012312933486,4.175654312483621,9.236379416061185,-0.14115698205347726
7.707768856058322,4.07952148823677,9.23496784624065,-0.33383062260737406
7.74856407094069,3.9870621992588235,9.231629540014577,-0.5145576346980416
7.788434692933278,3.898345958427771,9.226483963667597,-0.6839508177664846
7.827418152517556,3.813376904943801,9.219644455489933,-0.8426442118809242
7.865551921566993,3.7321055422674854,9.211218013371123,-0.9912770701619498
7.902872976989668,3.65443870622654,9.201305242669504,-1.1304806340051483
7.939417364051933,3.580247806577119,9.190000436329452,-1.260867386057345
7.9752198421177045,3.509375436056391,9.17739176246888,-1.383022420186209
8.010313596478268,3.4416404720642313,9.163561538267016,-1.4974965632123887
8.04473000119891,3.3768418135271756,9.148586572634892,-1.6048009024271759
8.078498419334183,3.3147609051251234,9.13253856361062,-1.7054024103787948
8.111646028385435,3.255163208579635,9.115484539506832,-1.7997204108461835
8.144197660471232,3.1977987915653605,9.097487335398371,-1.8881236963935124
8.176175648386884,3.1424022242565917,9.078606098434436,-1.970928189528464
8.20759967062945,3.0886920064837318,9.058896816539152,-2.048395138900023
8.238486590694288,3.0363697991305774,9.038412865150152,-2.1207299622935984
8.268850288685593,2.985119804209945,9.017205565527215,-2.1880819912820906
8.298701486727692,2.9346087279439015,8.995324745614393,-2.2505455360408795
8.328047574007131,2.884486862722003,8.972819290253984,-2.308162862499777
8.35689244263435,2.8343909194497634,8.949737661628985,-2.3609298333838167
8.385236351828848,2.783949299796281,8.926128363295147,-2.408805065996672
8.41307584482681,2.7327904699399403,8.902040312635181,-2.451723436219755
8.44040374952621,2.6805549215840263,8.877523078272983,-2.489614524654784
8.46720929874205,2.6269108192411386,8.852626933026436,-2.5224260706549684
8.49347840693446,2.5715727978093312,8.827402672319886,-2.5501516232430252
8.519194134912555,2.5143225196429806,8.801901156087457,-2.5728603968882426
8.544337360108985,2.455028660337842,8.776172552118574,-2.590726045872123
8.568887646712364,2.3936632232995514,8.750265291659852,-2.604050023488032
8.59282427894536,2.3303108180750454,8.724224791424971,-2.613274857515001
8.61612738712611,2.265168067111412,8.69809204284982,-2.6189834543021147
8.638779067797223,2.198531713727831,8.671902208306799,-2.621882549859972
8.660764384934502,2.130776045152732,8.6456833828082,-2.6227713040360046
8.68207214538603,2.062322365816601,8.61945566976784,-2.6224990008113753
8.702695369044196,1.9936047979433928,8.593230679759726,-2.6219179471681695
8.72263141702363,1.9250371722085993,8.567011500288045,-2.6218382923539814
8.741881788745715,1.8569851193491256,8.540793117364505,-2.6229905164977807
8.760451639939207,1.7897460052836287,8.514563212199526,-2.6259992265967256
8.778349099992043,1.7235376054450242,8.48830321993356,-2.6313694138127217
8.795584476046495,1.6584948937368869,8.461989525795433,-2.6394841813532572
8.812169424983864,1.5946733274651752,8.4355946839819,-2.650611565044705
8.828116158258515,1.5320565997061832,8.409088568331454,-2.6649175140386756
8.843436724255577,1.4705668895787614,8.382439393191067,-2.6824822079134316
8.858142393151365,1.4100759832070653,8.355614571111932,-2.703317392317209
8.872243152983435,1.350416089640771,8.32858139718876,-2.7273830700983765
8.885747313879843,1.2913896143228516,8.301307566487775,-2.754602515326952
8.898661210023072,1.232777512988084,8.273761541334506,-2.784875092672218
8.910988985152953,1.17434611075804,8.245912790407784,-2.818086736514979
8.922732446260532,1.115852441112591,8.217731923042635,-2.8541181831522073
8.933890970671658,1.0570482558396668,8.189190741211112,-2.892851182562336
8.944461453230055,0.9976829009201942,8.160262229385488,-2.9341729737434994
8.954438282239257,0.9375052630446051,8.130920499648052,-2.9779793161935286
8.963813334869704,0.8762649812937163,8.101140706486117,-3.0241763500702166
8.97257598468264,0.8137130984071526,8.070898942985414,-3.0726815231973457
8.980713115666711,0.7496023024427004,8.04017212775344,-3.12342378353555
8.988209138691138,0.6836868863295023,8.008937889918084,-3.176343196440934
8.995046007554434,0.6157225318842963,7.977174457953675,-3.231390109860574
9.001203232873277,0.545466007200529,7.944860556855069,-3.2885239588131165
9.006657892945281,0.47267485215919947,7.911975317266938,-3.3477117733673647
9.011384641466872,0.39710711599115456,7.878498199533264,-3.4089264316413255
9.015355712626784,0.31852120299431774,7.844408935216851,-3.4721446806468035
9.018540924656728,0.23667587724380126,7.8096874884103835,-3.537344932588532
9.020907683429165,0.15133047396896,7.774314039084498,-3.6045048320189785
9.022420988168856,0.06224536374653014,7.738268990764308,-3.6735985796704322
9.02304344180632,-0.030817284690506944,7.701533004967604,-3.744593991575699
9.022735268959416,-0.12809239687634022,7.664087065051847,-3.8174492671226066
9.021454344990651,-0.22981049356083247,7.625912572380621,-3.8921094369792675
9.019156240055043,-0.3361957532602231,7.586991478010828,-3.968502461528438
9.01579428252244,-0.4474635902135824,7.547306453395543,-4.046534952845325
9.011319646620304,-0.5638177038931805,7.50684110386709,-4.126087498750547
9.005681469581372,-0.6854465609346286,7.465580228879584,-4.207009576577537
8.998827003972027,-0.8125192782709141,7.423510133113808,-4.289114057589551
8.990701811189318,-0.9451808882501032,7.380618992537912,-4.37217132106329
8.981250002306817,-1.0835469834697649,7.336897279327279,-4.455903020468284
8.97041453247212,-1.227697761781506,7.292338249122596,-4.53997557330576
8.958137554854305,-1.3776715210378203,7.246938493389539,-4.623993481139789
8.944360839643927,-1.533457688982233,7.200698558578141,-4.70749262683432
8.929026262754105,-1.6949895160410304,7.153623632309798,-4.789933741072631
8.912076367593695,-1.8621366067939675,7.105724294899072,-4.870696278171567
8.893455001525755,-2.03469751784142,7.057017332117356,-4.949072989381113
8.87310802634734,-2.2123927028829615,7.007526602223545,-5.024265526657941
8.850984099318511,-2.394858136231786,6.957283946956966,-5.095381446760062
8.827035517956194,-2.5816399888732713,6.906330132489365,-5.161433009166833
8.801219118067461,-2.7721907610020615,6.854715802397696,-5.221338166281962
8.77349721045744,-2.965867286061102,6.802502420734877,-5.27392412558857
8.74383853759683,-3.1619310086330428,6.749763179478991,-5.317933817232881
8.712219227510499,-3.359550898723159,6.696583841306663,-5.3520355256381364
8.678623718523268,-3.557809297341061,6.6430634860502815,-5.37483584219907
8.643045625549856,-3.7557108957117866,6.589315127628291,-5.3848959736877084
8.605488516592738,-3.952194939748853,6.535466167891414,-5.380751307140239
8.565966567195249,-4.146150632988788,6.481658654820012,-5.360933998588441
8.52450506086536,-4.336435597596945,6.428049314834127,-5.323998232186161
8.481140704889391,-4.521897156708212,6.374809332512266,-5.268547697307255
8.435921733322308,-4.701396131397375,6.322123855539193,-5.193264756897022
8.388907772008334,-4.8738328046606885,6.270191207970223,-5.096940724185203
8.340169443961727,-5.038174686769274,6.219221800728371,-4.978506609527109
8.289787697094035,-5.193485705663056,6.169436734633099,-4.837063618096254
8.237852840037403,-5.338956419883599,6.121066098452137,-4.67191254171985
8.184463275838567,-5.473934785138506,6.074346973034938,-4.482580968229833
8.129723927987182,-5.5979568803297735,6.02952116335264,-4.268846919108946
8.073744359183884,-5.7107768118282465,5.98683269416155,-4.030757138168351
8.016636591065602,-5.812394787340659,5.946525122779867,-3.768637843203034
7.958512643192195,-5.903082133317439,5.908838744347836,-3.4830954075490532
7.899481821859021,-5.983401899484193,5.874007790272345,-3.17500427232437
7.839647802864179,-6.054223742658572,5.842257747549102,-2.845479516190255
7.779105565437593,-6.116732095824908,5.813802952387199,-2.4958320061306964
7.717938244479344,-6.172427262576704,5.788844632325892,-2.12750492539949
7.656213971853576,-6.223120032214951,5.767569583071897,-1.7419916270172673
7.593982771531427,-6.27092162175037,5.7501496668017245,-1.3407359889519657
7.531273555313923,-6.318232094013131,5.7367423069122045,-0.9250174650573804
7.468091234373792,-6.367731721393369,5.727492132261631,-0.4958235256891016
7.404413917159858,-6.422380916567434,5.72253389700474,-0.05371191135795578
7.340190107994184,-6.485435230819019,5.72199677789116,0.40133603117434563
7.275335755685994,-6.560482463260512,5.726010138202904,0.8700715903826413
7.209730931053389,-6.651509029771204,5.73471085410673,1.354147436779139
7.143215840755676,-6.763002047932478,5.748252328474521,1.8563034041273097
7.075585820276351,-6.900090951099435,5.7668153625157945,2.3805725716008816
7.006584910765357,-7.068724669458392,5.790621088231803,2.932501779252326
6.935897664070772,-7.275859367759569,5.819946106024326,3.5193518541557958
6.863139070393177,-7.529577315856174,5.855139624565884,4.150165776000072
6.787843297234615,-7.838921329364551,5.896641282325884,4.835399792681212
6.70945408394097,-8.212899854564885,5.944995280252696,5.585346821663189
6.627325085395321,-8.65736561062729,6.000848748469328,6.405522311646162
6.540751429289048,-9.16697714775156,6.06490397158579,7.28508781409111
6.449081657811533,-9.707620430942695,6.137754849726701,8.171840877393986
6.352005453502106,-10.187802467082598,6.21947325850064,8.9318129291865
6.25012742883128,-10.444358505173469,6.308791387792505,9.329513219401916
6.145683843779545,-10.320921492003214,6.402086519986524,9.139822764798971
6.042474628859512,-9.840546224073769,6.493484747634514,8.393385828144506
5.944069166618775,-9.208534088669557,6.577418605915959,7.3820272227115655
5.851983825732079,-8.604835803927573,6.651238878143075,6.365125965445115
5.765935467692803,-8.098179172625715,6.714890137797526,5.44583487111482
5.684953675966546,-7.693292315939914,6.769348486508674,4.635926799638095
5.608020752807147,-7.375379483350128,6.8157077545050555,3.918306834257775
5.534266957973646,-7.127596951213119,6.854890822847633,3.2720491735398958
5.462990988461515,-6.935633700399723,6.887611314583032,2.6792886598692878
5.393634651457518,-6.788179279003294,6.914404201181725,2.126218527455069
5.325752858667485,-6.676385669844418,6.935666386456275,1.6025782322637612
5.258989001969041,-6.593227074524502,6.951692168778913,1.1009284118953089
5.193056731223796,-6.532973612496233,6.962701452897866,0.6160333924701202
5.127726995098834,-6.490802422924513,6.9688617868225675,0.14439179638672295
5.062818970869588,-6.462524620933306,6.970305704786435,-0.31611327628451974
4.998193724660255,-6.444402015873931,6.96714457202359,-0.7664819105063176
