th1 (rad),w1 (rad/s),th2 (rad),w2 (rad/s)
3.0646744189931563,0.23245549715349503,4.446309923223039,0.9132831557391053
3.0669989739646915,0.21996051822612153,4.45544275478043,1.0096532428436102
3.0691985791469527,0.20893737548387042,4.465539287208866,1.1059591276361187
3.0712879529017916,0.1995200853344776,4.476598878485228,1.2021931110320458
3.073283153755136,0.19184321915308458,4.488620809595548,1.298353432230897
3.075201585946667,0.1860419926204602,4.501604343917857,1.3944447383683993
3.0770620058728717,0.1822523894883971,4.5155487913015415,1.4904784896429852
3.078884529767756,0.18061132045165335,4.530453576197972,1.5864732948513125
3.0806906429722725,0.18125681681148012,4.546318309146485,1.6824551724338308
3.0825032111403874,0.18432825745655654,4.563142860870823,1.7784577322686506
3.084346493714953,0.18996662635844155,4.580927438193509,1.8745222735234641
3.0862461599785376,0.19831479627876336,4.599672660928744,1.9706977938379664
3.088229307941325,0.20951783271423446,4.619379638867123,2.06704090491605
3.0903244862684676,0.22372331026334016,4.640050047916284,2.1636156492099827
3.092561719371101,0.24108163158427282,4.661686204408384,2.260493211732066
3.0949725356869435,0.2617463369245322,4.6842911365257045,2.357751520093035
3.097589999056189,0.28587438983369207,4.707868651726635,2.455474724610177
3.100448742954526,0.3136264221160076,4.7324233989727365,2.553752548734463
3.103585007175686,0.3451669183334471,4.757960924460081,2.652679498114365
3.1070366763590207,0.38066431723121436,4.784487719441224,2.7523539143651075
3.110843319531333,0.42029100433495864,4.812011258584875,2.85287685709224
3.1150462295746824,0.46422316668578867,4.8405400271557975,2.95435079500541
3.11968846124154,0.5126404772848687,4.870083535105851,3.0568780841679786
3.124814866014389,0.56572557339832,4.900652315947531,3.1605592087226833
3.130472121748372,0.6236632895582923,4.932257908034758,3.2654907570305474
3.136708754643955,0.6866396030832874,4.9649128156050635,3.371763104343258
3.143575150674788,0.7548402475048566,4.998630446648496,3.4794577722589994
3.1511235531498367,0.8284489477985423,5.033425024371087,3.588644435735955
3.159408042627822,0.9076452312543501,5.069311468728446,3.6993775508986007
3.1684844949403654,0.9926017697871851,5.106305244237432,3.8116925819073875
3.178410512638237,1.0834812142060721,5.144422170056505,3.925601813497076
3.189245324780298,1.1804324892728135,5.183678188191476,4.041089748209325
3.201049649673026,1.2835865312114345,5.22408908567357,4.158108104651552
3.21388551498514,1.393051467632291,5.265670166720085,4.276570456042218
3.2278160296614633,1.5089072644947854,5.3084358712805075,4.396346577406121
3.2429051023064113,1.6311998964282426,5.352399337054568,4.517256605270852
3.2592171012706936,1.759935135740015,5.397571903107277,4.639065155243022
3.276816452628094,1.8950721013993805,5.4439625546597075,4.761475589263279
3.2957671736420875,2.036516760906878,5.491577310552341,4.8841246734340364
3.3161323412511563,2.1841156327349283,5.540418557286681,5.006577915540552
3.3379734975785054,2.337649990975797,5.590484336442086,5.128325913702433
3.3613499974882632,2.4968309213553614,5.64176759557911,5.248782077441013
3.386318306701817,2.6612956117014295,5.694255416353521,5.3672820919962385
3.412931262818831,2.8306052719346466,5.747928237273483,5.483085477468232
3.4412373155381775,3.004245059894766,5.802759092048165,5.5953795381429865
3.4712797661371253,3.1816263318355134,5.858712887429594,5.703285897863894
3.5030960294554805,3.3620914346457877,5.915745746408233,5.8058696718386305
3.5367169438019386,3.5449211094877566,5.973804443126619,5.902151136663225
3.572166154896816,3.7293443883345327,6.032825954493251,5.991119538566517
3.609459598780161,3.914550647873757,6.092737149878917,6.07174844280553
3.648605105258899,4.099703258931834,6.153454634306972,6.143011800040057
3.689602137848217,4.283954059714826,6.2148847523073725,6.20389971885656
3.7324416784453653,4.466457716891391,6.276923749495938,6.253432819245298
3.7771062556142794,4.64638494818008,6.339458077688391,6.290674027959042
3.82357010509608,4.822933586292615,6.402364817967982,6.314736782571777
3.871799440959006,4.9953365793351425,6.4655121857937,6.324788842770751
3.9217528067523575,5.162866246534472,6.528760074221408,6.320051255679942
3.9733814692177023,5.32483442633559,6.591960586778208,6.2997924630038975
4.026629813481058,5.480588541048593,6.654958511408247,6.263318036763418
4.081435698891545,5.629504025863303,6.717591691775882,6.209957047269531
4.137730739150178,5.770973996129788,6.779691262248577,6.139046562112412
4.195440479111475,5.904397424390467,6.841081727869701,6.049916213403953
4.2544844533553805,6.0291674426187605,6.901580890003741,5.941875123254011
4.314776127781568,6.144661655774118,6.960999641236281,5.814203718672705
4.376222744339309,6.2502365323128135,7.019141678423008,5.66615306823107
4.438725109662437,6.345228003898115,7.0758032091053185,5.49695429491913
4.502177389701418,6.428960328028916,7.13077275205451,5.305840306760981
4.566466992981708,6.500764996751329,7.183831155122119,5.092081464316454
4.631474642949221,6.560010951644744,7.234751969765283,4.855035786958009
4.697074752465668,6.606146526429656,7.283302327634863,4.5942128137828835
4.763136217729965,6.638752339978701,7.329244455772692,4.309348256283339
4.829523741129752,6.657602815276708,7.372337938335525,4.000484187973414
4.896099769282519,6.662732212671506,7.412342780215259,3.6680469508078115
4.962727091409234,6.654499281438779,7.4490232497233375,3.312912656071318
5.029272084223622,6.633643236852881,7.48215237628405,2.9364487341904737
5.095608516592151,6.601323239505536,7.511516863625955,2.540520131923103
5.161621748987206,6.559134344416138,7.536922064945186,2.127451020674316
5.227213092431367,6.5090952549197985,7.558196575151929,1.6999374169718557
5.292304044980566,6.453607040219833,7.575195949321648,1.260912441692692
5.356840115382764,6.395386673281604,7.587805073738575,0.813372884647211
5.42079398211558,6.337383856940608,7.595938802585047,0.3601816545759075
5.484167820684986,6.2826930634539275,7.5995406191308055,-0.09613604228566369
5.5469947513195255,6.234474212911212,7.598579258707949,-0.5535853733740346
5.609339493448638,6.195894726474237,7.593043404974209,-1.010870133679696
5.67129844071338,6.1701032412488415,7.582934703637411,-1.4675302521900728
5.732999473125868,6.160241985815529,7.568259401115511,-1.924050368255096
5.794601892984023,6.16950175131943,7.54901889743296,-2.3819490341732377
5.856296910497218,6.201221377461328,7.525199407091228,-2.8438642308567257
5.918309124271831,6.2590329885430815,7.49676076478266,-3.313654731812904
5.980899454157262,6.347054321291767,7.463624217464531,-3.796537845869309
6.04436999737018,6.47012846864671,7.425658839005838,-4.299280554614198
6.109071282056647,6.634104394120004,7.382666033459696,-4.830447617936106
6.175412325997847,6.846126696135181,7.334361557280335,-5.400671370113935
6.243873592959199,7.114830264836696,7.280354843579196,-6.022802569833371
6.315021895607566,7.450139163585306,7.220126817880862,-6.711524763980456
6.389523287243419,7.861866052570386,7.153011570241057,-7.481309995532012
6.468141947769123,8.3551030580136,7.078198470285737,-8.339906929441424
6.551692978349259,8.917938548489264,6.994799400991322,-9.271113443030993
6.640872363834151,9.494372221542967,6.902088266561012,-10.196858776860788
6.735816086049581,9.94410632270072,6.800119678792404,-10.920989746621089
6.835257149276588,10.046352482708308,6.6909097813261935,-11.135000849274766
6.9357206741036705,9.667821063558735,6.579559772833446,-10.65408201651927
7.032398884739258,8.960409963494333,6.473018952668253,-9.693789092447341
7.122002984374201,8.197615818583028,6.37608106174378,-8.639686979333904
7.203979142560032,7.526198451137398,6.289684191950441,-7.699588345779288
7.279241127071406,6.973742348423566,6.212688308492647,-6.91434124014518
7.348978550555642,6.525332286156054,6.143544896091195,-6.264988872079265
7.414231873417203,6.159431592607254,6.080895007370403,-5.722922207657166
7.475826189343275,5.85755342210892,6.023665785293831,-5.263480713366103
7.534401723564364,5.605514186361294,5.9710309781601705,-4.867803901228079
7.590456865427977,5.392717674681712,5.922352939147889,-4.521917810282513
7.644384042174794,5.211230063570991,5.877133761045064,-4.215512571596526
7.696496342810504,5.05502767636879,5.834978635329099,-3.9409480810213813
7.747046619574192,4.919447001965199,5.795569154518885,-3.6925328808469517
7.796241089593844,4.80079418648523,5.758643825710416,-3.4660190536747764
7.844249031458696,4.696068595852302,5.723983635173668,-3.258250733801288
7.891209717417219,4.60276602834462,5.691401127835655,-3.06691769125662
7.937237377700665,4.518738005444702,5.660731950923089,-2.8903791849898988
7.982424757755112,4.442091772406964,5.63182815907319,-2.727533421728577
8.026845675479182,4.371121361333104,5.6045528248559044,-2.577714832465999
8.070556889092513,4.304263881995155,5.578775676531245,-2.440606020037267
8.113599527912465,4.240077554872216,5.554369616330872,-2.3161546160619078
8.156000303461187,4.177239143483598,5.531208070170253,-2.2044882035346887
8.197772694896024,4.114558514936418,5.509163188134906,-2.1058234916208933
8.238918280045388,4.051007182436237,5.488104953218697,-2.020369392422912
8.27942835186975,3.9857560906643257,5.467901259294468,-1.9482275239351963
8.319285912776394,3.9182160212865407,5.448418984055116,-1.8892975124325966
8.35846807298926,3.8480724621960216,5.4295260089307895,-1.8431974606640318
8.39694879761122,3.7753063475551953,5.411094034324149,-1.8092110549762588
8.434701861086772,3.7001933510158493,5.393001923774387,-1.786271155105717
8.47170379459693,3.623277584297592,5.3751392122233295,-1.7729851374129544
8.507936570439906,3.5453201542703523,5.3574093608492,-1.7677005021398295
8.543389771982609,3.4672279833381623,5.339732355827802,-1.7686019755688256
8.57806205181599,3.3899722335227622,5.3220463360721135,-1.7738256093050946
8.611961774151219,3.314507461579319,5.304308079979062,-1.7815728888558038
8.645106848767012,3.2417018324875078,5.286492351090504,-1.790209235099991
8.677523867091887,3.1722857463042,5.268590258739504,-1.7983358558167448
8.709246724554928,3.106822136297445,5.250606900181337,-1.8048300891265436
8.740314945917902,3.045697693879607,5.232558599290072,-1.8088553553738391
8.770771922856698,2.989131306476584,5.214470045736333,-1.8098462206542205
8.800663235921464,2.9371944729818535,5.196371583529791,-1.8074762871935959
8.830035180651283,2.8898382973441445,5.178296820657855,-1.801616825652697
8.858933563624724,2.846922449703824,5.160280652401328,-1.792292869583195
8.887402788121763,2.8082427370516148,5.142357723705496,-1.7796416329547855
8.915485215492279,2.7735552341119067,5.124561307375949,-1.7638761874978983
8.943220767833397,2.7425960357768404,5.10692254550097,-1.7452557159897424
8.970646728191165,2.7150964991958055,5.089469988341072,-1.724062489208693
8.997797693183122,2.6907943461991413,5.072229363448986,-1.7005849931611574
9.024705636645113,2.6694412506270644,5.055223513517374,-1.6751062745300243
9.051400049151383,2.650807613282769,5.038472450772074,-1.6478964677262722
9.07790812528421,2.634685197124224,5.021993486094812,-1.6192085174216553
9.104254977255453,2.6208882091975063,5.005801400920595,-1.5892762400500131
9.130463859347428,2.60925330919841,4.989908638520095,-1.5583140253131769
9.15655639243941,2.59963891876596,4.974325498266963,-1.5265176337539272
9.18255278162707,2.591924111664973,4.959060321929424,-1.4940656834747343
9.20847202274372,2.586007287178765,4.944119665094676,-1.4611215322662134
9.234332095615509,2.5818047676541815,4.929508449772014,-1.427835350527948
9.26015014329205,2.5792494145718363,4.915230096266734,-1.3943462479771564
9.285942637437769,2.578289323321401,4.901286633786963,-1.3607843668754143
9.311725530670982,2.5788866325098603,4.887678790118209,-1.3272728900862905
9.337514396996081,2.5810164668235434,4.874406061217346,-1.2939299370566106
9.363324561664317,2.584666021278036,4.86146676184678,-1.2608703375837365
9.389171221877097,2.5898337875905844,4.848858058470943,-1.2282072842071403
9.415069559753004,2.5965289192189536,4.836575985628871,-1.1960538709419748
9.441034848945193,2.604770729447516,4.824615446919451,-1.164524530118748
9.467082556239669,2.614588316120185,4.812970201618264,-1.133736381223874
9.493228439400871,2.6260203067554975,4.801632837806025,-1.1038105064997612
9.519488642468426,2.639114718499252,4.790594732741027,-1.0748731681046084
9.54587978965342,2.6539289284364806,4.7798460010599815,-1.0470569811399224
9.572419078937784,2.670529751021646,4.769375431248582,-1.0205020559959515
9.599124376448001,2.6889936206552396,4.759170410688623,-0.9953571223119165
9.626014312654554,2.709406878612333,4.749216839465504,-0.9717806453827841
9.653108381440678,2.7318661644831623,4.739499033011676,-0.949941943965603
9.68042704308551,2.7564789128575344,4.72999961357202,-0.9300223159485892
9.707991832214086,2.7833639559581003,4.720699390412534,-0.912216174929209
9.735825471773667,2.8126522319974137,4.711577228663242,-0.8967321959305519
9.763951994093642,2.844487596760313,4.702609906703937,-0.8837944615794437
9.792396870061244,2.879027731658191,4.693771962088142,-0.8736435900834459
9.821187147377826,2.916445134339299,4.685035526187308,-0.8665378118574881
9.850351598721218,2.9569281665299285,4.676370148068733,-0.8627539406388294
9.879920880386518,3.000682116195482,4.667742608662344,-0.8625881545099392
9.909927701548472,3.047930204583033,4.659116727117245,-0.8663564583405601
9.940407003594302,3.098914429303664,4.6504531625338394,-0.8743946360135793
9.971396147887338,3.1538960767903976,4.6417092161737035,-0.8870574103904393
10.002935108655242,3.2131556535239674,4.632838642069799,-0.9047164002536753
10.035066665190481,3.276991864871952,4.623791478067262,-0.9277562815432056
10.0678365838392,3.3457190994181127,4.6145139152518295,-0.9565683056514943
10.101293774833382,3.419662637970487,4.604948232195315,-0.9915399763718072
10.135490401213087,3.499150480308166,4.595032832431596,-1.033039212537904
10.170481906016168,3.584500250868986,4.584702440306217,-1.0813907018383335
10.206326908524858,3.6759990998504453,4.573888533287834,-1.136841376756347
10.243086899523362,3.7738738835699084,4.56252011952027,-1.1995110585213953
10.280825638359062,3.878248285310305,4.550525008935057,-1.269323469514835
10.319608121212164,3.9890831679796426,4.537831774239908,-1.3459123702486482
10.359498952891961,4.106096831679893,4.524372650537422,-1.4284982661442607
10.40055992120876,4.228663875947193,4.510087667875979,-1.515734250736243
10.442846559968233,4.35569641088748,4.494930325368617,-1.6055270876884946
10.486403524077108,4.485521081990018,4.4788750544917315,-1.6948539602915356
10.531258734897008,4.615780786168369,4.461926514888816,-1.7796178590695977
10.577416542758693,4.743409207884187,4.44413033629812,-1.8546126005631307
10.624850634837534,4.8647412165113995,4.425584210292489,-1.913690116318521
10.673498047002647,4.975816034407187,4.4064473091293035,-1.950213781906384
10.723256207346719,5.072883062144696,4.38694517131024,-1.957813471330176
10.773985037968165,5.153028497037872,4.367367036596938,-1.9313249388233904
10.825515322938545,5.21474127019946,4.348053787208704,-1.8676507380509422
10.87766273564054,5.258204007858588,4.329377279828194,-1.766229624240071
10.930244775719125,5.285183178796149,4.3117149835857935,-1.6289258109558442
10.983096607507086,5.298565882647279,4.295425725476235,-1.459398329602374
11.036082266333558,5.301733568121367,4.280831742180212,-1.2622195196639785
11.089099602014771,5.2979863280294195,4.268209546983572,-1.0420509186505562
11.142079465295065,5.290148988349795,4.257789037797067,-0.8030709790269419
11.194980955178563,5.280382188383255,4.249758328006798,-0.5486952130258351
11.247784777062396,5.27015166161973,4.244271375876539,-0.28152726505454545
11.300486293678594,5.2602893149175145,4.241456103225993,-0.003448461233924782
11.353089186827768,5.251091261971968,4.241421618613654,0.2842325252028177
11.405600099447488,5.242418760547369,4.244263943865683,0.5806200363602696
11.458024287052963,5.233785815843211,4.250070144229285,0.885087228154158
11.510362145211396,5.2244286496207675,4.258921016510827,1.1971566341746023
11.562606431707604,5.213358196222502,4.270892582852573,1.51640637663579
11.614740013669829,5.199399223072184,4.286056646618931,1.8423994424523957
11.666734005900551,5.18122021516275,4.3044806410434555,2.174632675812629
11.718546208052178,5.1573578387420795,4.326226967801582,2.5125025829629983
11.770119786439599,5.126239153222639,4.351351993631212,2.85528587636444
11.821382177971826,5.086204015919103,4.379904852394857,3.202133499575674
11.872244218131016,5.035529405848803,4.4119261873906135,3.5520774973151674
11.922599512189503,4.972456693095932,4.447446962363765,3.9040504685300093
11.972324079120462,4.895222188692968,4.486487467049065,4.256917460138594
12.021276301007392,4.802090618469748,4.529056641650451,4.609520048825438
12.06929720719209,4.6913904796185575,4.575151842138705,4.960732057891505
12.116211111988276,4.561549588272071,4.624759162717621,5.309525918723616
12.161826607870998,4.411128560357886,4.677854421904857,5.655048175024154
12.205937893474577,4.238849559251913,4.734404903655098,5.996702109152563
12.248326389067095,4.043617487657624,4.794371924746623,6.334234999890479
12.288762563943672,3.824531018463447,4.857714274745528,6.6678271189790745
12.327007874128308,3.5808816091635745,4.924392545935319,6.998179176418816
12.362816690219944,3.3121401600145397,4.994374337699507,7.326594306283213
12.395938091820089,3.0179336473422973,5.0676402807623395,7.655049319626843
12.426117428293512,2.6980186077214725,5.144190773958608,7.986246763530851
12.453097614370726,2.352266140804037,5.224053241593917,8.323632236375621
12.476620275778767,1.9806867675791309,5.307289563957673,8.671346516692529
12.496427143454559,1.5835478961325387,5.394003029124598,9.034052252547866
12.512262622415884,1.1616802237227362,5.484343551650077,9.416517956599572
12.523879424653112,0.7171445899488871,5.578508731216073,9.822739313202305
12.531050870552601,0.25454841559353436,5.676736124348096,10.254211275206462
12.533596354708536,-0.21656021493850985,5.7792782371001605,10.706756412255615
12.531430752559151,-0.6777901106428288,5.886345801222717,11.165269703315106
12.524652851452723,-1.0967436956865761,5.997998498255868,11.596590002688101
12.513685414495857,-1.423354592385995,6.113964398282748,11.944039048319738
12.499451868571997,-1.5953144867126547,6.233404788765946,12.133692822918873
12.483498723704871,-1.5614270472389866,6.354741716995135,12.104250684782176
12.46788445323248,-1.3150441809058857,6.475784223842957,11.850043221853662
12.454734011423422,-0.9039076210495172,6.594284656061493,11.432480643675543
12.445694935212927,-0.4002210600769016,6.708609462498249,10.93978332484676
12.441692724612158,0.13566389845688287,6.818007295746717,10.440562102604051
12.443049363596728,0.6677434377832357,6.922412916772757,9.969998116279529
12.449726797974561,1.1790217712011661,7.0221128979355525,9.538759736841719
12.461517015686573,1.6630429551575252,7.11750049530397,9.144847812372266
12.478147445238148,2.118121926222459,7.208948973427693,8.781219143195235
12.499328664500373,2.5443436097250642,7.296761164859645,8.43957207992254
12.524772100597623,2.9422208527162663,7.3811568856588705,8.11196870430533
12.554194309124785,3.312184147106551,7.462276572701924,7.791439792216958
12.58731615059585,3.6544546616179616,7.540190970624094,7.472158114111613
12.623860697212029,3.969082378115507,7.61491255176521,7.149443972348102
12.663551520993185,4.256046874539627,7.686406991488691,6.819711867184974
12.70611198973858,4.515372560328006,7.754604110160541,6.480398192692212
12.75126571534186,4.7472351532786305,7.819408092087463,6.129881090210917
12.798738066874646,4.952047986020853,7.880706902989572,5.767392931808131
12.848258546734854,5.130522806073484,7.9383808323076535,5.39292325256315
12.899563774795588,5.283703375650261,7.992310064833285,5.007110681168961
12.95240080855209,5.412972736795879,8.042381171644974,4.61112436135835
