th1 (rad),w1 (rad/s),th2 (rad),w2 (rad/s),a1 (rad/s^2),a2 (rad/s^2)
5.979155889464436,-2.2286416485427814,3.5606856252253447,0.6027656755548846,7.7066554300571894,13.052650928474407
5.956869472979008,-2.1515750942422094,3.5667132819808938,0.7332921848396287,7.624827435016744,12.773706240072698
5.935353722036586,-2.075326819892042,3.57404620382929,0.8610292472403557,7.513422433649825,12.476948594758337
5.914600453837666,-2.0001925955555437,3.5826564963016936,0.9857987331879391,7.375393710634431,12.167573192200654
5.894598527882111,-1.9264386584491995,3.592514483633573,1.1074744651099457,7.213652301859828,11.850555340788127
5.8753341412976186,-1.8543021354306013,3.6035892282846724,1.2259800185178271,7.0309980211609515,11.530566508347734
5.8567911199433125,-1.7839921552189917,3.615849028469851,1.3412856836013045,6.830063683388833,11.211913628950693
5.838951198391123,-1.7156915183851034,3.629261885305864,1.4534048198908114,6.61327264883893,10.898500644725598
5.8217942832072715,-1.649558791896714,3.643795933504772,1.5623898263380673,6.382809047403666,10.593810240981325
5.805298695288305,-1.5857307014226774,3.6594198317681528,1.6683279287478805,6.140599477101412,10.300903068180085
5.789441388274078,-1.5243247066516632,3.6761031110556317,1.7713369594296813,5.888304609739127,10.022431408636473
5.774198141207561,-1.465441660554272,3.6938164806499287,1.871561273516046,5.627318956095707,9.760664187473242
5.759543724602018,-1.4091684709933148,3.7125320933850894,1.9691679153907784,5.358777012284796,9.517520382155947
5.745452039892085,-1.3555807008704668,3.732223772538997,2.064343119212338,5.083564091215915,9.294608186719355
5.731896232883381,-1.3047450599583077,3.7528672037311206,2.1572892010795313,4.802330302224447,9.09326767496108
5.718848782283798,-1.2567217569360631,3.774440095741916,2.248221877829142,4.515506346039582,8.914615130704298
5.706281564714438,-1.2115666934756673,3.7969223145202076,2.3373680291361847,4.223320015499484,8.759587633705085
5.694165897779681,-1.1693334933206725,3.8202959948115693,2.4249639054732355,3.9258125158387815,8.628986879369803
5.682472562846474,-1.1300753681622846,3.8445456338663018,2.5112537742669336,3.6228539296571385,8.523521551603634
5.671171809164851,-1.0938468288657133,3.8696581716089713,2.59648898978297,3.314157344504935,8.443847851053281
5.660233340876194,-1.060705255420664,3.895623061506801,2.680927468293503,2.99929133421777,8.390608001238412
5.649626288321987,-1.0307123420784863,3.922432336189736,2.7648335483058872,2.6776906419343827,8.364466710854963
5.639319164901202,-1.0039354356591423,3.950080671672795,2.848478215414437,2.3486650603530417,8.366145660453721
5.629279810544611,-0.980448785055612,3.9785654538269393,2.932139672018974,2.0114066544173013,8.396456102167875
5.619475322694055,-0.9603347185114389,4.007886850547129,3.016104233040653,1.664995639080603,8.456329603789145
5.60987197550894,-0.9436847621206329,4.038047892877535,3.100667529078544,1.3084054319243148,8.546846816888458
5.600435127887734,-0.9306007078013897,4.069054568168321,3.186135997247429,0.940507677574703,8.669263874285793
5.59112912080972,-0.9211956310256427,4.100915928140795,3.2728286359902867,0.5600784309792192,8.825035578394816
5.581917164499464,-0.9155948467158506,4.1336442145006975,3.3610789917742347,0.16580725115517947,9.015833855622162
5.572761216032305,-0.9139367742042988,4.16725500441844,3.451237330330456,-0.24368821482988495,9.243558910761266
5.5636218482902615,-0.9163736563525976,4.201767377721744,3.5436729194380687,-0.6698383560258715,9.51033894920429
5.554458111726736,-0.9230720399128564,4.237204106916125,3.6387763089301117,-1.1140828224253825,9.818511989211213
5.545227391327607,-0.9342128681371101,4.2735918700054265,3.736961428822224,-1.5778085755580054,10.170579783767286
5.535885262646236,-0.9499909538926902,4.310961484293649,3.8386672266598967,-2.0622525596613817,10.569118658094048
5.526385353107309,-0.970613479489304,4.349348156560247,3.9443584132408374,-2.5683510236506373,11.016624346786006
5.516679218312416,-0.9962969897258104,4.388791740692656,4.054524656708697,-3.0965091340430764,11.515256564564163
5.506716248415158,-1.0272620810662412,4.429336987259743,4.169677222354339,-3.6462524598505412,12.066432566319557
5.496443627604496,-1.0637246056647467,4.471033759483286,4.290341548017534,-4.215704927459932,12.670195495454701
5.485806381547849,-1.105881654939346,4.513937174963462,4.417043502972081,-4.800814721349027,13.324250989293835
5.474747564998455,-1.1538898021528363,4.558107609993183,4.55028601286502,-5.394219929335042,14.022523350309367
5.463208666976927,-1.2078320014461867,4.603610470121833,4.690511246368113,-5.983611772645482,14.753033099588906
5.451130346962465,-1.2676681191726415,4.650515582585514,4.838041577364002,-6.549424186039271,15.494852536246077
5.438453665770739,-1.3331623610330343,4.698895998359154,4.992990102726464,-7.061678873041829,16.21388742128552
5.4251220421604085,-1.4037791497634526,4.748825899386419,5.155128976939319,-7.475900032475133,16.857335425814448
5.411084250662774,-1.478538150088204,4.800377189155812,5.323702331197464,-7.728291686034154,17.347033926879977
5.396298869161892,-1.5558210669485455,4.853614212467787,5.497172670466264,-7.731026483018982,17.572783770232864
5.380740658492406,-1.6331313317787353,4.90858593917245,5.672900508168593,-7.369762623844275,17.388449101807225
5.364409345174619,-1.706828958017178,4.9653149442541356,5.846784999186665,-6.507488976092176,16.616342051521613
5.347341055594447,-1.7719038477780997,5.023782794246002,6.012948419701882,-5.000936394203889,15.068356369502974
5.329622017116667,-1.8219132117201386,5.083912278443021,6.163631983396912,-2.7359161534395287,12.592560764742583
5.311402884999465,-1.849272373254534,5.14554859827699,6.289557591044338,0.3181973660732062,9.145673950259678
5.29291016126692,-1.8460903995938018,5.208444174187433,6.381014330546935,4.050548713842411,4.870190439890791
5.274449257270982,-1.8055849124553778,5.272254317492902,6.429716234945843,8.182997187694827,0.12797933964933952
5.256393408146428,-1.7237549405784296,5.336551479842361,6.430996028342337,12.313711097224717,-4.559855750363592
5.239155858740643,-1.6006178296061824,5.400861440125784,6.385397470838701,16.03011175003709,-8.665736678010152
5.223149680444582,-1.4403167121058114,5.464715414834171,6.2987401040585995,19.03478180206104,-11.823380031599221
5.208746513323524,-1.249968894085201,5.527702815874757,6.180506303742607,21.21198647953043,-13.91278790898741
5.196246824382672,-1.0378490292898968,5.589507878912183,6.041378424652733,22.60988712389247,-15.030888510132138
5.185868334089773,-0.8117501580509721,5.649921663158711,5.891069539551412,23.372320911780424,-15.39609058209782
5.177750832509263,-0.5780269489331678,5.7088323585542256,5.7371086337304344,23.669388167565224,-15.254121948155344
5.171970563019931,-0.3413330672575155,5.76620344489153,5.584567414248881,23.653507717529312,-14.820276387125565
5.168557232347356,-0.10479799008222238,5.822049119034019,5.436364650377626,23.442065473237772,-14.25820724596233
5.167509252446534,0.12962266465015534,5.876412765537795,5.2937825779180026,23.11677787109263,-13.680989416588783
5.168805479093035,0.3607904433610817,5.929350591316975,5.156972683752115,22.730191186935127,-13.16117517023348
5.172413383526647,0.5880923552304329,5.980920318154497,5.0253609320497805,22.31359390466233,-12.742145187599093
5.178294307078951,0.8112282942770562,6.0311739274749945,4.89793948017379,21.883887397452185,-12.44760054120752
5.186406590021721,1.030067168251578,6.0801533222767326,4.773463474761715,21.44878446224336,-12.288508302727255
5.196707261704237,1.2445550128740117,6.12788795702435,4.6505783917344425,21.010473178292106,-12.267811687809091
5.209152811832977,1.4546597446569327,6.174393740941694,4.527900274856352,20.568100995712342,-12.383468867351842
5.223699409279547,1.660340754614056,6.219672743690258,4.404065586182833,20.119425199595,-12.630342988945495
5.240302816825688,1.861535006610006,6.263713399552087,4.277762156293378,19.66189980103997,-13.001344388457168
5.258918166891788,2.058154004620406,6.30649102111502,4.147748712408807,19.19338922776616,-13.488107417270877
5.279499706937992,2.2500878968980675,6.347968508239108,4.012867638236098,18.712635472381397,-14.081391990741029
5.302000585906972,2.4372142516218815,6.388097184621469,3.8720537183286874,18.219559804601072,-14.771334482368268
5.326372728423191,2.619409849667892,6.426817721804756,3.724340373505005,17.71544956349035,-15.54762808327116
5.35256682691987,2.7965643453027957,6.464061125539806,3.5688640926722934,17.2030609123637,-16.399682903429046
5.380532470372898,2.9685949544264325,6.499749766466529,3.404867263638003,16.686656385190858,-17.31679589353682
5.410218419917162,3.135461518278341,6.533798439102909,3.2316993047026346,16.1719890593258,-18.288346574282166
5.441573035099945,3.297181408871599,6.566115432149935,3.048815838959813,15.666241442480622,-19.304024219627298
5.4745448491886615,3.4538438232964053,6.596603590539534,2.85577559676354,15.177925334747544,-20.354084021583887
5.509083287421626,3.6056230766438806,6.625161346507169,2.652234756547701,14.716747977474286,-21.42962283559429
5.545139518188065,3.7527905564186232,6.651683694072646,2.437938528191758,14.293448810074702,-22.522858563092754
5.582667423752251,3.89572504451937,6.676063079354563,2.21270994256083,13.919609180734803,-23.6273902385271
5.621624674197444,4.034921136326718,6.698190178780171,1.9764360401755592,13.607433278100348,-24.738407321240686
5.661973885560712,4.170995469107721,6.717954539181927,1.7290519669631523,13.369490872018527,-25.852804784035158
5.703683840251789,4.304690377827907,6.735245058851559,1.4705239191228008,13.218399004276925,-26.969142484844966
5.746730744030068,4.436874367870676,6.749950298042787,1.2008324942743511,13.166397268504765,-28.087358409474326
5.791099487708775,4.568538340555723,6.761958622985531,0.9199589101796078,13.224734701398921,-29.208098438240988
5.8367848711143315,4.700785687569713,6.771158212087327,0.627877925797198,13.402727876539632,-30.331449284124094
5.883792727990029,4.834812966335109,6.777436991345299,0.3245634329559571,13.706258363926045,-31.454740316049875
5.93214085765338,4.97187554997437,6.780682625674858,0.010016029795458292,14.135338720841489,-32.568893848198144
5.981859613153124,5.113228937182785,6.7807827859728125,-0.31567290868652315,14.680175519821471,-33.65253337027216
6.032991902524952,5.260030692381,6.777626056885947,-0.6521982423892447,15.314897171380386,-34.662709951412175
6.085592209448762,5.413179664094804,6.7711040744620545,-0.9988253419033665,15.98785520618642,-35.52077086494275
6.139724006089709,5.573058216156668,6.7611158210430204,-1.354033050552794,16.60738303385152,-36.09190836534451
6.195454588251276,5.739132046495183,6.747575490537493,-1.714952134206239,17.0227437936522,-36.15820249153881
6.252845908716227,5.909359484431706,6.73042596919543,-2.076534159121627,17.00313183340163,-35.389514810382686
6.311939503560544,6.0793908027657215,6.7096606276042134,-2.430429307225454,16.22537142706559,-33.3277240571033
6.372733411588201,6.241644517036377,6.685356334531959,-2.7637065477964873,14.29514287260605,-29.419932034923963
6.4351498567585645,6.384595945762438,6.657719269053994,-3.0579058681457267,10.841488948867102,-23.157179648615532
6.498995816216189,6.493010835251109,6.627140210372537,-3.289477664631882,5.713484887064862,-14.359016028155075
6.5639259245687,6.550145684121758,6.594245433726218,-3.433067824913433,-0.7743867805020179,-3.5260774165726616
6.629427381409918,6.542401816316738,6.5599147554770845,-3.4683285990791597,-7.744487447295319,8.021271382589616
6.694851399573085,6.464956941843784,6.525231469486293,-3.3881158852532636,-14.019900194129937,18.525174605470625
6.759500968991523,6.324757939902485,6.49135031063376,-3.2028641391985575,-18.661607927780693,26.567998159616888
6.822748548390548,6.138141860624677,6.459321669241775,-2.9371841576023887,-21.35178987502698,31.63327397155441
6.884129966996794,5.924623961874407,6.429949827665751,-2.6208514178868447,-22.34547836734924,34.046767810192016
6.943376206615539,5.701169178200915,6.403741313486882,-2.2803837397849245,-22.15844348284384,34.53201050607911
7.000387898397547,5.4795847433724765,6.3809374760890325,-1.9350636347241332,-21.293785932821688,33.813545384245984
7.055183745831272,5.26664688404426,6.361586839741791,-1.5969281808816733,-20.12344211084144,32.43922885784014
7.107850214671714,5.0654124629358455,6.345617557932974,-1.272535892303272,-18.880874939109567,30.76312769254293
7.158504339301072,4.87660371354475,6.332892199009942,-0.9649046153778427,-17.69553696971339,28.990893288710367
7.20727037643652,4.699648343847616,6.323243152856164,-0.674995682490739,-16.630166266114504,27.231372128370378
7.2542668598749955,4.533346681186471,6.3164931960312565,-0.40268196120703525,-15.70854349075773,25.535860963996466
7.2996003266868605,4.376261246278894,6.312466376419186,-0.1473233515670706,-14.933241831903134,23.92365690795274
7.3433629391496495,4.2269288279598625,6.3109931429035155,0.09191321751245679,-14.296096922473192,22.397407134426242
7.385632227429248,4.0839678587351305,6.31191227507864,0.31588728885671924,-13.78407350813934,20.951890720250695
7.4264719060166,3.946127123653737,6.315071147967207,0.5254061960592262,-13.382421039782844,19.57885628024391
7.465933177253137,3.812302913255909,6.320325209927799,0.7211947588616654,-13.076299007906183,18.269578573200878
7.504056206385696,3.6815399231768473,6.327537157516415,0.9038905445936742,-12.851565058914334,17.016125746516767
7.540871605617465,3.553024272587704,6.336576062962352,1.0740518020588419,-12.695118674696854,15.811910272433266
7.576401848343342,3.4260730858407356,6.34731658098294,1.2321709047831746,-12.595017718744948,14.651849358710841
7.610662579201749,3.300122908653286,6.359638290030772,1.378689398370283,-12.540485398949558,13.53231850730867
7.643663808288282,3.1747180546637903,6.373425184014475,1.5140125834433698,-12.52186943717575,12.451001372349124
7.67541098883492,3.0494993602920326,6.388565309848909,1.6385225971668609,-12.530584488080017,11.406693759282897
7.70590598243784,2.9241935154112326,6.404950535820578,1.7525895347596898,-12.559052173547611,10.399094172243956
7.735147917591952,2.7986029936757566,6.422476431168175,1.8565804764821294,-12.600644296410698,9.428599013206053
7.7631339475287096,2.6725965507116496,6.441042235932996,1.95086646661419,-12.649630379622996,8.496112434556695
7.789859913035826,2.5461002469154197,6.460550900599138,2.035827590959757,-12.701128682349033,7.6028761852307145
7.815320915504981,2.4190889600919294,6.480909176508735,2.111856352812064,-12.751059164465705,6.7503220339442045
7.8395118051059,2.291578368447272,6.502027740036856,2.179359573151506,-12.796096876865079,5.939947654913655
7.862427588790373,2.163617399678621,6.523821335768371,2.2387590497006427,-12.833624588133167,5.1732157613513285
7.884063762787159,2.0352811537972895,6.546208926265377,2.290491207314156,-12.861683914360574,4.451475524115977
7.904416574325132,1.9066643146536837,6.569113838338519,2.3350059625553157,-12.878924683136042,3.77590478867181
7.923483217471668,1.7778750678223232,6.592463897964072,2.3727650104420337,-12.884552673152712,3.147471236965757
7.941261968149892,1.649029541090796,6.6161915480684925,2.4042397228116914,-12.878276197170656,2.5669103976812706
7.9577522635608,1.5202467791190895,6.640233945296609,2.429908826788504,-12.860252227727097,2.03471826904208
7.972954731351991,1.3916442568418184,6.664533033564494,2.4502560094789247,-12.831032903386332,1.5511562691645018
7.9868711739204095,1.263333927807955,6.689035593659283,2.4657675721705696,-12.791513307103232,1.116266257455281
7.999504513198489,1.1354187947369225,6.713693269380989,2.4769302347451223,-12.742881390039422,0.7298934636995826
8.010858701145859,1.0079899808365282,6.73846257172844,2.484229169382118,-12.686570838209693,0.39171530513771474
8.020938600954224,0.8811242724544313,6.7633048634222614,2.4881463224334954,-12.624217559944626,0.10127425085418927
8.029749843678768,0.754882096854985,6.7881863266465965,2.4891590649420374,-12.5576203223701,-0.14198690856360346
8.037298664647318,0.629305893631284,6.813077917296017,2.4877391958564012,-12.488705895726447,-0.33868882594911437
8.043591723583631,0.5044188346740195,6.837955309254581,2.48435230759691,-12.419498883172771,-0.48947964736369354
8.048635911930372,0.38022384584229174,6.86279883233055,2.479457511123273,-12.352096224884145,-0.5950004366852161
8.052438150388795,0.2567028835934503,6.887593407441782,2.473507506756421,-12.28864616862231,-0.6558529510076895
8.055005179224729,0.13381642190722717,6.912328482509347,2.466948977246344,-12.231331289460806,-0.6725706948688999
8.056343343443801,0.011503109012619112,6.9369979722818105,2.4602232702976554,-12.182354908053359,-0.6455942220717167
8.056458374533928,-0.11032044006791449,6.961600204984787,2.453767328076938,-12.143929981752695,-0.5752518122337872
8.055355170133248,-0.23175973988544143,6.9861378782655565,2.4480148099546004,-12.118269199173747,-0.46174696325585174
8.053037572734395,-0.3529424318771789,7.010618026365102,2.4433973403220417,-12.10757455827271,-0.3051546622358485
8.049508148415622,-0.474018177459906,7.0350519997683225,2.440345793699683,-12.114024097788663,-0.10542919666304805
8.044767966641023,-0.5951584184377926,7.05945545770532,2.4392915017330528,-12.139752610020238,0.13757255837562102
8.038816382456645,-0.716555944537995,7.08384837272265,2.440667227316809,-12.186821993306044,0.4240467624438133
8.031650823011265,-0.8384241644710554,7.1082550449958175,2.444907694941247,-12.257175280080961,0.7541691717963828
8.023266581366554,-0.960995917271865,7.13270412194523,2.452449386659211,-12.352566144213815,1.127981423787771
8.013656622193835,-1.084521578714003,7.157228615811823,2.4637292008970886,-12.474452666113983,1.545221431785998
8.002811406406694,-1.2092661053751428,7.181865907820794,2.4791814152149487,-12.623840128991278,2.005076479037354
7.990718745352943,-1.3355045066650555,7.2066577219729435,2.4992321800053223,-12.801052506304346,2.5058302204124967
7.9773637002862925,-1.463515031728099,7.231650043772997,2.524290482209447,-13.005406147759611,3.044365949179172
7.962728549969012,-1.5935690932056952,7.256892948595091,2.554734141701239,-13.234752527278687,3.615478953191413
7.946792859036955,-1.725916618478482,7.2824402900121035,2.5908889312331533,-13.484851338968154,4.210942801625587
7.92953369285217,-1.8607651318681635,7.308349179324435,2.632998359249409,-13.748534210034412,4.818272956901473
7.910926041533488,-1.9982504739685076,7.334679162916929,2.6811810888184238,-14.01462973994843,5.419146028417915
7.890943536793802,-2.138396771367992,7.361490973805114,2.735372549102603,-14.266654761698566,5.987481781270395
7.869559569080122,-2.2810633189849776,7.38884469929614,2.795247366915307,-14.48135420276755,6.487305533060397
7.846748935890273,-2.425876861012653,7.416797172965293,2.860120422245911,-14.627319024322185,6.870718351199362
7.822490167280146,-2.572150051255875,7.445398377187752,2.9288276057579044,-14.664153283166707,7.076647079300736
7.796768666767588,-2.718791584087542,7.474686653245331,2.999594076550912,-14.542994935698793,7.031522751219088
7.769580750926712,-2.86422153344453,7.50468259401084,3.0699093040631027,-14.209536510440273,6.653525989651948
7.740938535592267,-3.0063168985489326,7.535381687051472,3.136444563959622,-13.610798012268212,5.862197512389089
7.710875366606778,-3.1424248786716147,7.566746132691068,3.195066539083513,-12.70633469035219,4.594415821892241
7.679451117820062,-3.2694882255751367,7.598696798081903,3.2410106973024355,-11.482839669079251,2.8253126074655035
7.646756235564311,-3.384316622265929,7.631106905054928,3.2692638233770905,-9.968256905262033,0.5886626955653875
7.612913069341651,-3.4839991913185493,7.6637995432886985,3.2751504503327444,-8.238861012584106,-2.0125142291912304
7.578073077428466,-3.56638780144439,7.696551047792026,3.2550253080408322,-6.412901868853283,-4.814274405746328
7.542409199414022,-3.630516820132923,7.7291013008724345,3.206882563983369,-4.6293382180746425,-7.621240614596453
