th1 (rad),w1 (rad/s),th2 (rad),w2 (rad/s)
3.5015881149407777,-1.1398736325333974,4.059839281108472,-1.5002551578324028
3.490189378615444,-1.1236612155856285,4.0448367295301475,-1.4430240128975598
3.4789527664595874,-1.109457503678015,4.030406489401172,-1.3847846158035133
3.467858191422807,-1.0972068953442375,4.016558643243137,-1.325588412039902
3.4568861224693648,-1.0868562381470417,4.003302759122738,-1.2654815928379333
3.446017560087894,-1.0783548652555408,3.9906479431943582,-1.2045054442353276
3.435234011435339,-1.0716545801286914,3.978602888752005,-1.1426967247187079
3.424517465634052,-1.066709587810079,3.967175921504818,-1.0800880756169806
3.4138503697559512,-1.0634763720457046,3.956375040748648,-1.0167084675778937
3.403215606035494,-1.0619135181869808,3.946207956072869,-0.9525836854840565
3.3925964708536243,-1.0619814826443652,3.9366821192180286,-0.8877368530547025
3.3819766560271805,-1.0636423105237873,3.9278047506874816,-0.8221889971321396
3.3713402329219426,-1.066859304020313,3.9195828607161602,-0.7559596502615811
3.3606716398817396,-1.0715966451730643,3.9120232642135444,-0.6890674886341502
3.349955673430009,-1.0778189777116407,3.905132589327203,-0.6215310007723163
3.3391774836528927,-1.0854909539514686,3.89891727931948,-0.5533691804983768
3.328322574113378,-1.09457675401986,3.893383587514496,-0.4846022357540976
3.3173768065731797,-1.1050395861007953,3.8885375651569554,-0.4152523027628867
3.3063264107121717,-1.1168411778444662,3.8843850421293267,-0.34534415289445985
3.295157998933727,-1.1299412705494998,3.8809316006003822,-0.27490587747929934
3.283858586228232,-1.1442971291236452,3.878182541825589,-0.2039695338264217
3.2724156149369956,-1.1598630820740088,3.876142846487325,-0.1325717339505116
3.2608169841162553,-1.176590106762738,3.8748171291478197,-0.06075415616599107
3.249051083048628,-1.1944254757651018,3.8742095875861597,0.01143604107198766
3.237106828290977,-1.2133124802525315,3.8743239479968796,0.08394592372526997
3.224973703488452,-1.233190245763811,3.8751634072341323,0.15671662487310156
3.2126418010308138,-1.253993654409177,3.876730573482863,0.22968334331935958
3.200101864486722,-1.2756533853919023,3.8790274069160566,0.3027755127086692
3.187345330632803,-1.2980960826953336,3.882055162043143,0.3759171513744374
3.1743643698058497,-1.3212446548992889,3.8858143335568873,0.44902739760189725
3.161151923256857,-1.3450187074627042,3.890304607532906,0.5220212284506797
3.14770173618223,-1.3693351026250293,3.895524819817413,0.5948103530192126
3.1340083851559797,-1.394108636600681,3.901472923347605,0.6673042634291544
3.120067298789973,-1.4192528182969246,3.9081459659818965,0.7394114193302651
3.1058747706070036,-1.4446807287446912,3.915540080175199,0.8110405348943399
3.0914279633195565,-1.4703059361708442,3.9236504855241425,0.8821019316055017
3.076724903957848,-1.496043438505982,3.9324715048401977,0.9525089161383302
3.0617644695727884,-1.521810603391703,3.941996594001581,1.0221791406164162
3.046546363538871,-1.5475280756002485,3.952218385407745,1.0910359027830991
3.031071082782869,-1.573120623256105,3.963128744435576,1.1590093461327966
3.015339876550308,-1.5985178972665086,3.974718837896904,1.2260375246923494
2.9993546975776426,-1.6236550827107,3.9869792131438277,1.2920673035740162
2.9831181467505354,-1.648473426285681,3.999899886179568,1.357055074166142
2.9666334124876785,-1.672920629868517,4.01347043692123,1.4209672713103598
2.9499042061889935,-1.6969511064134615,4.027680109634334,1.4837806884274545
2.932934695124859,-1.720526100353469,4.042517916518609,1.5454825947163389
2.9157294341213245,-1.7436136800709126,4.057972742465772,1.6060706657601975
2.8982932973206155,-1.76618861457508,4.074033449123374,1.6655527447473215
2.8806314111748645,-1.7882321501070149,4.090688976570847,1.7239464558071873
2.8627490896737946,-1.8097317049212036,4.107928441128919,1.7812786935721587
2.8446517726245824,-1.8306805019999917,4.125741228064641,1.8375850140268644
2.8263449676045824,-1.851077160051984,4.144117078204909,1.8929089511280308
2.8078341960040625,-1.870925263001328,4.163046167716189,1.9473012817641537
2.7891249433740493,-1.8902329275000351,4.182519180533831,2.000819258608777
2.770222614099049,-1.9090123870179065,4.202527373119919,2.0535258265379723
2.7511324902288696,-1.927279610013851,4.223062631385298,2.105488833741882
2.731859694128731,-1.945053968789086,4.2441175197227174,2.1567802436262626
2.71240915444084,-1.9623579750726559,4.26568532215898,2.2074753481774048
2.6927855746901135,-1.9792170983824562,4.287760075640754,2.2576519776891026
2.672993403706289,-1.9956596839163274,4.3103365954176445,2.3073896955891624
2.6530368068671257,-2.011716988324389,4.333410492373536,2.35676896045125
2.632919636983882,-2.0274233543580897,4.356978181978048,2.4058702299671864
2.612645403440301,-2.0428165492450776,4.38103688427772,2.45477297346152
2.59221723794785,-2.0579382968610624,4.405584614012335,2.5035545501917436
2.5716378549792394,-2.0728350405067113,4.430620159514253,2.5522888999191293
2.550909504574172,-2.087558981456708,4.456143048513444,2.6010449798158213
2.530033914759605,-2.102169448447548,4.482153498311602,2.649884867563776
2.5090122202751295,-2.116734664748848,4.5086523469872395,2.698861434611279
2.487844873627641,-2.131333991928081,4.535640961333352,2.7480154765455427
2.46653153370836,-2.146060741806607,4.563121116098808,2.797372170765019
2.445070926290294,-2.1610256584057925,4.591094837806458,2.8469367177471185
2.423460669706236,-2.176361176385015,4.619564204983929,2.896689015937075
2.401697057942386,-2.192226555779979,4.6485310951433,2.946577229537183
2.3797747923845862,-2.2088139656298704,4.677996867438671,2.9965101457994656
2.3576866527282876,-2.226355527626412,4.707961968896666,3.046348302777972
2.3354230974520234,-2.2451312157318206,4.738425451924446,3.095894027000193
2.3129717852947054,-2.2654773129757255,4.769384392194448,3.1448807893293402
2.290317012164948,-2.287794821645237,4.800833200087742,3.1929627098075275
2.267439063948496,-2.3125567780008662,4.832762827185817,3.239705661385679
2.244313496168487,-2.3403128222673772,4.865159883799675,3.2845822617772864
2.2209103679458133,-2.371688644469215,4.898005706417448,3.326974070492224
2.197193481501121,-2.407377174341759,4.93127544712237,3.3661853796286207
2.1731197097577035,-2.448117851137304,4.964937300918656,3.401473770630169
2.1486385312463305,-2.494660414556487,4.9989520386249575,3.432102526519737
2.1236919271007655,-2.5477109747565168,5.033273063890155,3.4574182385474446
2.0982148173532003,-2.6078612163031525,5.06784724627563,3.4769527202566035
2.072136205190169,-2.675506665782591,5.1026167734781955,3.4905413333263224
2.045381138532343,-2.750766305487402,5.1375221868114584,3.498440967640274
2.0178734754774688,-2.833421446912331,5.172506596487861,3.5014229458427932
1.9895392610083455,-2.9228936369330656,5.207520825946289,3.5008132854802816
1.960310324639015,-3.0182766702525248,5.242528958801092,3.4984589987956864
1.9301275579364898,-3.1184260609430656,5.277513548789049,3.49661523076447
1.8989432973270592,-3.222093855320248,5.312479701096693,3.4977696385820325
1.8667223587738568,-3.3280835983740307,5.347457397482514,3.504439018888039
1.8334415227901166,-3.435395378966664,5.382501787671394,3.518980663857276
1.79908756900045,-3.5433360861743437,5.417691594309967,3.5434543978366206
1.7636542081387065,-3.6515823301737194,5.453126138288333,3.579554634955701
1.7271383848369695,-3.760197214430505,5.48892168463789,3.628612944387836
1.6895364126926644,-3.869612299907009,5.525207814081768,3.6916575447731907
1.6508402896935943,-3.9805905609804553,5.5621243895295,3.769510020900853
1.6110343840837897,-4.094185622590174,5.5998194897385085,3.8629005738076274
1.570092527857888,-4.211709259340732,5.6384484954765846,3.972588426238975
1.5279754352644808,-4.334715207792693,5.678174379738974,4.099480687873842
1.4846282831865538,-4.4650042252068385,5.719169186617712,4.244749138250467
1.4399782409344855,-4.604653632327446,5.761616678000217,4.4099492814615875
1.393931704611211,-4.756074357945917,5.805716170814833,4.597149763199556
1.3463709610317518,-4.922099551789509,5.851687668446829,4.809083297016667
1.2971499655138568,-5.106110844712552,5.8997785014169954,5.049333105686459
1.2460888570667312,-5.312210852077586,5.95027183247386,5.322571656896191
1.1929667485459554,-5.545452501803213,6.003497549042822,5.634870232460999
1.1375122235279234,-5.812134375628974,6.059846251367432,5.994094958970584
1.0793908797716336,-6.120158493245691,6.119787200957138,6.410386377633896
1.0181892948391766,-6.47940077063249,6.183891064733476,6.896654726090878
0.9533952871328517,-6.9019046445592345,6.2528576119943855,7.4688279105450075
0.8843762406872594,-7.401314912822834,6.3275458910998355,8.145039531306839
0.8103630915590311,-7.989918561129476,6.408996286412904,8.941475034545018
0.7304639059477364,-8.669105855948049,6.4984110367583545,9.859015425183157
0.6437728473882559,-9.404339651893194,6.597001191010186,10.848180555866413
0.549729450869324,-10.075315906738988,6.7054829965688505,11.739263046034214
0.4489762918019341,-10.435166865280129,6.822875627029193,12.185038846761973
0.3446246231491328,-10.238954279721359,6.944726015496813,11.840628195078407
0.2422350803519192,-9.565967390387538,7.063132297447597,10.81424163629151
0.14657540644804384,-8.762930334836152,7.1712747138105115,9.586932108701042
0.05894610309968232,-8.055134487341908,7.267144034897522,8.470298721916443
-0.021605241773736766,-7.491937189709646,7.3518470221166865,7.531557038022705
-0.09652461367083323,-7.056955686142334,7.427162592496914,6.746859626545422
-0.16709417053225656,-6.723835388523885,7.4946311887623684,6.078525935750115
-0.2343325244174954,-6.470410378894184,7.555416448119869,5.494592723069381
-0.2990366282064373,-6.280207074493738,7.610362375350563,4.970920688498382
-0.36183869895137466,-6.141302771901872,7.660071582235547,4.489703741308428
-0.4232517266703934,-6.045008886002036,7.704968619648631,4.037784459901841
-0.48370181553041375,-5.984833107063754,7.74534646424765,3.6054008109046918
-0.5435501466010513,-5.955718338046543,7.7814004723566965,3.1853616753268503
-0.6031073299815167,-5.953483325226244,7.813254089109965,2.772545188696099
-0.6626421632337791,-5.974401029106014,7.840979540996926,2.363621221477176
-0.7223861735248392,-6.01487466446929,7.864615753211698,1.9569193658873263
-0.7825349201695322,-6.071192811556334,7.884184946870572,1.5523768433425582
-0.8432468482850956,-6.139361473122551,7.899708715303997,1.1515064442718612
-0.9046404630163211,-6.215021515496157,7.911223779746716,0.75732762726492
-0.9667906781712826,-6.29346314832873,7.918797056019365,0.37421027772163346
-1.02972530965457,-6.36974354154215,7.922539158796581,0.0075957960913819456
-1.0934227450699914,-6.438899559067079,7.922615116757495,-0.33641345470600725
-1.1578117406606623,-6.4962283092192346,7.919250982210435,-0.651570826274263
-1.2227740237528546,-6.537590470267599,7.912735273947692,-0.9320490750652173
-1.2881499284555307,-6.5596828895471875,7.903414783197039,-1.1729711972597356
-1.3537467573510025,-6.5602326624911305,7.891685071224442,-1.3708295485929034
-1.4193490839759138,-6.5380837181875995,7.877976775738513,-1.523737676350092
-1.4847299211577898,-6.493172050471612,7.862739398975012,-1.6314960592275678
-1.549661641662506,-6.426408167341876,7.846424438382736,-1.6954896872670917
-1.6139257233359248,-6.339498523704576,7.829469541510066,-1.7184607701153327
-1.6773207085729704,-6.234740010051169,7.812284933808912,-1.7042092498954582
-1.7396681086734822,-6.114815672286491,7.795242841309958,-1.6572694846361338
-1.800816265396347,-5.982610253699866,7.778670146463597,-1.5825994231186455
-1.8606423679333457,-5.841054825094061,7.76284415223241,-1.4853048287241537
-1.9190529161842864,-5.693002891073836,7.747991103945169,-1.3704095373411525
-1.9759829450950248,-5.541136394715274,7.734287008571758,-1.2426747943850922
-2.0313943090421773,-5.387898391932215,7.721860260627906,-1.1064661149932324
-2.0852732929614994,-5.2354488815340074,7.710795599477974,-0.9656638044763286
-2.1376277817768394,-5.085640529853462,7.701138961433211,-0.8236122032064984
-2.188484187075374,-4.940011311187711,7.692902839401146,-0.6831021630487307
-2.2378843001872513,-4.799791204870162,7.686071817770658,-0.5463808971292685
-2.285882212235953,-4.665920069695281,7.680608008799366,-0.4151831280809248
-2.3325414129329056,-4.539073773722526,7.676456177518557,-0.2907774720733929
-2.377932150670131,-4.419695708042578,7.673548402797823,-0.1740223140366707
-2.422129107750557,-4.30803102034128,7.671808179657456,-0.06542606265394296
-2.46520941795397,-4.204161268720696,7.671153919030917,0.034792444628538755
-2.507251030641177,-4.108037672215033,7.671501843477202,0.1266466009115414
-2.548331407363327,-4.019511654995065,7.672768309486317,0.21032994352232764
-2.588526523913278,-3.938361882104954,7.67487160892154,0.28617058297197023
-2.6279101427343274,-3.864317418319314,7.67773331475126,0.3545926410448594
-2.6665533169175206,-3.7970769827114887,7.681279241161708,0.41608461473437974
-2.7045240867446356,-3.736324513852348,7.685440087309052,0.47117419156377777
-2.741887331883159,-3.6817414124004126,7.69015182922469,0.5204088120839513
-2.778704746007163,-3.6330159052595237,7.6953559173455295,0.564341172756447
-2.815034905059758,-3.5898499971814006,7.700999329073094,0.6035188513411639
-2.850933405031572,-3.5519644594933726,7.707034517586505,0.6384772854271328
-2.886453049626506,-3.5191022665337273,7.713419290440776,0.6697354172152088
-2.9216440722918433,-3.4910308398768395,7.720116644612928,0.6977934151595956
-2.9565543806906116,-3.4675434066369535,7.727094578764524,0.7231319827642905
-2.991229814756981,-3.448459726290326,7.734325898592167,0.7462128588008969
-3.0257144120198842,-3.4336263935686278,7.741788027180176,0.7674801972189136
-3.0600506759555706,-3.4229168844814852,7.749462829152365,0.7873625873352396
-3.0942798448003854,-3.416231478792693,7.757336455025717,0.8062755353950113
-3.1284421595883125,-3.4134971650177843,7.765399210379667,0.8246242780813667
-3.1625771312384905,-3.4146676125745428,7.773645453160481,0.8428068382307717
-3.196723807364236,-3.419723279258693,7.782073521542789,0.8612172641877807
-3.2309210401568227,-3.4286717098018524,7.790685694184667,0.8802490180812179
-3.2652077572548412,-3.4415480719095672,7.7994881843654795,0.9002984957045624
-3.299623237973937,-3.4584159688060896,7.808491169322525,0.9217686720928008
-3.3342073976619977,-3.4793685607020493,7.817708856043453,0.9450728721871738
-3.3690010832690183,-3.504530020219498,7.827159584765324,0.9706386642695916
-3.404046383471213,-3.5340573365878205,7.83686597140802,0.9989118631425915
-3.439386956837091,-3.5681424674010898,7.846855090039446,1.030360606770187
-3.475068381511102,-3.607014810497029,7.857158696107148,1.0654794283994382
-3.511138529616072,-3.6509439253949587,7.867813490391143,1.10479317668875
-3.547647968870022,-3.7002423634809185,7.87886142215803,1.1488605244564662
-3.584650392504831,-3.7552683530622386,7.890350027402595,1.1982766297864358
-3.6222030760354538,-3.816427905574022,7.902332793700459,1.253674236991883
-3.660367355091194,-3.884175626379413,7.914869536070378,1.3157220775487912
-3.699209111354988,-3.959013073907426,7.928026756845866,1.385118776005816
-3.7387992420940623,-4.0414828364988695,7.941877944605924,1.4625794732219581
-3.779214070459051,-4.132155480212893,7.956503739338143,1.5488108993188054
-3.82053562526118,-4.2316050285266655,7.9719918483313315,1.6444684759799246
-3.862851675546447,-4.34036652903516,7.98843653309113,1.750086018467316
-3.9062553408367986,-4.45886648519197,8.005937393275804,1.8659646812884647
-3.9508440056887184,-4.5873137166829405,8.02459704008869,1.9920033176545746
-3.9967171428555477,-4.7255355535790295,8.044517073265235,2.1274488747231493
-4.043972498391338,-4.872744809463801,8.065791562012466,2.2705466711194817
-4.092699946485976,-5.027232359003377,8.08849702872366,2.418084537612357
-4.14297227007601,-5.18600812990671,8.112677874099784,2.564865840280175
-4.194832351375077,-5.3444718790410155,8.138326532502585,2.703231392499949
-4.2482770701654875,-5.4962869563556245,8.165358846427585,2.822882807007966
-4.3032399397290435,-5.633720657102843,8.193587674497666,2.911389877124968
-4.359577146300072,-5.748698988024813,8.222701573268916,2.9557417969162656
-4.41706413618032,-5.8345567178021,8.252258991238078,2.944918279112104
-4.475409703358341,-5.88794339840398,8.281708174029198,2.8727074274236806
-4.534289137342381,-5.909939211933704,8.310435248303435,2.739405257386589
-4.593388529461718,-5.905682368789513,8.337829300877301,2.551374310487148
-4.652445353149613,-5.882702198883213,8.363343043982173,2.318712270636273
-4.711272375138445,-5.848895503213841,8.386530166688535,2.0523595502753027
-4.769761330170583,-5.81103476374909,8.407053762191289,1.7619286187597518
-4.827871677808075,-5.774111232625876,8.424673048378887,1.4547144763601931
-4.885612790134333,-5.741324485169645,8.43922019314249,1.135639989663256
-4.94302603498603,-5.714389263592622,8.450576593039122,0.8076767927402219
-5.000169927621956,-5.693913170911169,8.458653360966524,0.47239036777735616
-5.057109059331068,-5.679724019116709,8.463377264644297,0.1304316934176769
-5.113906299522235,-5.67111172044189,8.464681581578473,-0.21808041900100517
-5.170617416726653,-5.6669905201770625,8.462500777388463,-0.5732832664849574
-5.227287321928424,-5.666000382515674,8.456767944723614,-0.9353780755672543
-5.283947325753581,-5.6665667715014205,8.447414163967942,-1.304498193769611
-5.3406129934685955,-5.666934443840907,8.434369182030245,-1.6806191914785107
-5.397282337907004,-5.665186838209023,8.41756299011546,-2.063498312477207
-5.4539342062890945,-5.659259363849214,8.396928006990688,-2.4526356464594223
-5.510526799927587,-5.646952487808369,8.372401650526093,-2.84725302232797
-5.566996324805671,-5.625948790495129,8.343929120302814,-3.2462890749937015
-5.623255812710622,-5.593836846043308,8.311466229552877,-3.6484104504478845
-5.679194181171055,-5.548143670679023,8.274982125048398,-4.052039880645547
-5.734675617877845,-5.486376415645675,8.234461726241943,-4.4554020261287395
-5.7895393820343015,-5.406072871117978,8.189907705980655,-4.856587660354269
-5.843600110745482,-5.304859162289933,8.141341829377112,-5.253636054244278
-5.896648702368381,-5.180511780808385,8.08880546883467,-5.644634420879202
-5.948453820176465,-5.0310198759500615,8.032359124625877,-6.0278321303091165
-5.998764018935966,-4.854642645941838,7.972080803322786,-6.401766264415859
-6.047310445395384,-4.649955869454943,7.908063140678627,-6.765394138450508
-6.093810004089933,-4.415881266864529,7.840409199294122,-7.118227865122095
-6.137968816758579,-4.151692643781783,7.769226920642901,-7.460466049959917
-6.1794857431963965,-3.8569937886746155,7.694622260143302,-7.793118372410587
-6.218055681083142,-3.53166499788958,7.616691076419197,-8.118120043740198
-6.253372331062038,-3.175778051951083,7.535509875981795,-8.438434544225768
-6.285130111581549,-2.78948384959183,7.451125530539537,-8.758143670249106
-6.313024950077467,-2.372883722135944,7.363544093837046,-9.082521764276102
-6.336753787298826,-1.9259071630020776,7.2727188761942845,-9.418081997198955
-6.356012858928847,-1.4482409376923924,7.178538056222295,-9.77255843407745
-6.3704952683057705,-0.9393993988993607,7.08081247188152,-10.154731307042805
-6.379889262294764,-0.39911793497755177,6.979265158811092,-10.573880089198845
-6.383880441644539,0.1715637577284982,6.873526357919103,-11.038395346249455
-6.382164804067254,0.7678196389411037,6.763142404456609,-11.552600542857862
-6.374486607677843,1.3759398024267266,6.64761639902803,-12.110100696557222
-6.360727209653576,1.9641688159504613,6.526515392062458,-12.68155577042411
-6.341085521494072,2.4701920057939986,6.399699834358217,-13.197531420871922
-6.316383601436131,2.7956305513974646,6.267724520149498,-13.540013752946265
-6.2884272959221565,2.8345119416796334,6.132324382620036,-13.578760141293918
-6.26008217650536,2.5479179832107413,5.996536781207096,-13.268812669334915
-6.234602996673253,2.0113366670768227,5.863848654513747,-12.710270497601408
