th1 (rad),w1 (rad/s),th2 (rad),w2 (rad/s)
4.244948370407609,2.4064393062077922,2.579883786788612,2.111110701305721
4.2690127634696875,2.47228973173296,2.6009948938016696,2.122763441310557
4.293735660787017,2.539209659004765,2.6222225282147753,2.1396572207576896
4.319127757377065,2.607094249224046,2.6436191004223524,2.161991226951601
4.3451986998693055,2.6758321777300274,2.6652390126918686,2.1899635771494985
4.3719570216466055,2.7453040404066695,2.6871386484633635,2.223769790043926
4.399410062050672,2.815380572254729,2.7093763463638028,2.2636010700800795
4.427563867773219,2.885920672730081,2.7320123570646038,2.30964238427109
4.4564230745005196,2.9567692360071134,2.7551087809073147,2.362070312170105
4.48599076686059,3.0277547888432,2.7787294840290158,2.4210506518611163
4.516268314749023,3.098686944342663,2.802939990547627,2.486735768513507
4.54725518419245,3.1693536867921774,2.827807348232762,2.5592616774982675
4.578948721060371,3.2395185109991145,2.853399965007745,2.6387448615852858
4.6113439061703625,3.3089174493197877,2.879787413623598,2.7252788316251397
4.6444330806635605,3.3772560308824833,2.907040201939849,2.818930452637156
4.678205640972386,3.444206230390891,2.9352295064662206,2.9197360726049126
4.712647703276295,3.5094034782436556,2.9644268671922696,3.0276975096743484
4.747741738058731,3.5724438193055996,2.994703842289013,3.142777974904774
4.783466176251787,3.632881324133555,3.026131622038061,3.264898032140041
4.819794989493123,3.6902258732099655,3.0587806023594615,3.3939317236575066
4.856697248225222,3.743941450942376,3.0927199195960364,3.5297030194923464
4.894136662734646,3.7934451007349455,3.12801694979096,3.671982778917834
4.932071113741996,3.8381067038999768,3.164736777580138,3.8204864433548713
4.970452180780995,3.8772497517835047,3.2029416420136867,3.974872709488596
5.00922467829883,3.9101532801170347,3.2426903691085727,4.1347434577020605
5.048326211100001,3.9360551248523423,3.2840378036855933,4.299645231829082
5.0876867623485245,3.9541566369259424,3.327034256003884,4.469072579072409
5.127228328717784,3.96362895677657,3.3717249817946082,4.642473560883769
5.16686461828555,3.9636208953720033,3.418149717403446,4.819257733761876
5.20650082723927,3.9532683948077105,3.466342294741065,4.998806870638708
5.246033511187347,3.9317054469072765,3.516330363447452,5.180488646806481
5.28535056565642,3.898076232755808,3.568135249915517,5.363673448431878
5.324331327983978,3.851548111750436,3.6217719843998357,5.547754377769352
5.362846809101482,3.7913249400506097,3.677249528177529,5.732170431041648
5.400760058501988,3.7166600426088396,3.7345712324879456,5.916432719777123
5.437926658928077,3.6268680105693503,3.7937355596857167,6.100153505172213
5.47419533903377,3.5213343596780313,3.854737094737439,6.283077732594183
5.50940868263055,3.3995219802164867,3.9175678720633806,6.465116707541915
5.543403902432715,3.2609732502546973,3.9822190391388,6.646383564419126
5.576013634935262,3.1053066865575563,4.048682874782991,6.8272302626396355
5.6070667018008375,2.9322070852223083,4.1169551774093875,7.008286011246169
5.636388772653061,2.741408272097809,4.187038037521849,7.190497268988644
5.663802855374039,2.5326678643024154,4.258943010211736,7.375169759830851
5.689129534017063,2.3057338862037886,4.332694707810044,7.564013202666223
5.7121868728791005,2.060303792021611,4.408334839836707,7.759189505788525
5.732789910799316,1.7959776545338595,4.485926734894592,7.963364674712698
5.750749687344655,1.5122094740299952,4.56556038164172,8.179762939237241
5.765871782084955,1.2082647452661128,4.647358011034092,8.41221725733599
5.7779544295376155,0.8832006039974397,4.731480183607452,8.665200679887512
5.78678643557759,0.535901026918751,4.8181321904063275,8.943802663392871
5.792145445846778,0.16523131249931622,4.907570217040256,9.253572779737537
5.793797758971771,-0.22956263210185313,5.000105944837631,9.600071845414764
5.791502132650753,-0.6479713222056286,5.096106663291779,9.98781491314849
5.785022419428697,-1.0864263039630289,5.195984812423264,10.418024226971479
5.774158156389066,-1.5349206163112086,5.300165054692979,10.884255987647526
5.758808950225954,-1.971344370883633,5.409007614569454,11.364872177324898
5.739095506517118,-2.3540388200485762,5.522656336342703,11.812876982430843
5.715555118316632,-2.61769593678306,5.640785106167011,12.149834956090555
5.689378158948801,-2.685864582685435,5.762283455727917,12.281645510650291
5.662519513121947,-2.5106567840731344,5.88509991083442,12.150419434831141
5.637412945281216,-2.113602614650024,6.006604105182731,11.787235703231914
5.616276919134716,-1.574407495040499,6.124476462215051,11.295011695547132
5.600532844184311,-0.9768564655875508,6.237426579170522,10.776404435647194
5.590764279528436,-0.3746139019101692,6.345190623526994,10.291041238403976
5.587018140509334,0.20778243323652978,6.448101035911034,9.85963593343454
5.589095964841699,0.762431309701044,6.546697395245379,9.48180154307617
5.59672027793871,1.288585372834528,6.64151541067614,9.148728390084946
5.609606131667055,1.7877747502641732,6.73300269457699,8.849366212640419
5.627483879169697,2.2617266824590967,6.821496356703394,8.57289775658163
5.650101145994288,2.7116198756212464,6.90722533426921,8.30955868150202
5.677217344750501,3.1379158498198523,6.99032092108423,8.05081915322211
5.7085965032487,3.5404267003030436,7.070829112616451,7.789358733848903
5.74400077025173,3.9184745162866377,7.1487226999549405,7.5190002812938665
5.783185515414596,4.271081551649984,7.223912702767879,7.234656751455275
5.825896330931096,4.5971641754674,7.296259270282432,6.932299789658324
5.87186797268577,4.895716606598372,7.365582268179015,6.608941984874378
5.920825138751754,5.1659751861932754,7.431671688027759,6.262619479064716
5.9724848906136865,5.407555949767087,7.494297882818406,5.8923616964077645
6.026560450111357,5.620559812603964,7.553221499782484,5.498137550587291
6.082766048237397,5.805641608292308,7.608202875288357,5.080771336429012
6.14082246432032,5.96404165791457,7.659010588652647,4.641825873585624
6.200462880899465,6.097581306230948,7.705428847388503,4.183454787829859
6.261438693961775,6.208626615601509,7.747263395266802,3.7082296203973613
6.3235249601177905,6.3000268097609515,7.784345691470775,3.218950361535414
6.3865252282154,6.375035801728615,7.8165351950861295,2.7184497382857353
6.450275586232686,6.43722599579734,7.843719692468987,2.209402034266445
6.514647846190659,6.490403388129322,7.865813712811652,1.6941464755370976
6.579551880071953,6.538531749157335,7.882755177567023,1.174533634037414
6.644937197563526,6.585671323282764,7.894500513907397,0.6518015351936535
6.710793910796354,6.635933898786762,7.901018529259334,0.12648723627870695
6.777153249784221,6.693450832279705,7.902283401622121,-0.40161888436674653
6.844087758107018,6.762342501273039,7.898267212778453,-0.9334625954187851
6.911711183119748,6.846664215445503,7.888932586824265,-1.4706303631024673
6.980177825274203,6.950280044617662,7.874226283193241,-2.0151093961699855
7.04968062572038,7.076574017015898,7.854075189231541,-2.5687854644114125
7.120446365890539,7.227835789260487,7.828387334587426,-3.1324593285746087
7.192724723783144,7.404046512242553,7.79706274130168,-3.704006932089258
7.266765188905569,7.6006683095900325,7.760022671980788,-4.275140337874072
7.342771872001469,7.805081964606705,7.717271268602047,-4.826294918801298
7.420822691647536,7.992082578973935,7.669008319414034,-5.320267188682633
7.500743517437275,8.121383925835138,7.615805647527208,-5.69883708608956
7.581957356695627,8.14429655174936,7.558817276666312,-5.892555699292873
7.66340032221312,8.025926599238831,7.499891719673384,-5.852632017492729
7.743659588205508,7.7716907630688254,7.441365399498457,-5.588851244930513
7.821376495836197,7.428364170234842,7.385476887049152,-5.171052702744159
7.895660137538545,7.054313025617839,7.333766360021711,-4.686431976853289
7.966203267794723,6.691929001017846,7.286902040253178,-4.199667207801727
8.033122557804901,6.362001138197039,7.244905368175161,-3.7442976264178673
8.096742569186873,6.0705659245071475,7.207462391910982,-3.332173337021161
8.157448228431944,5.816375211649751,7.174140658540771,-2.9640650196977627
8.215611980548442,5.595436701538788,7.144500008343793,-2.6362359477391504
8.27156634756383,5.403181654976246,7.118137648866401,-2.3436608795442853
8.325598164113593,5.235339167973032,7.094701040070959,-2.081385911776554
8.377951555793324,5.088212987428995,7.073887180953193,-1.8450109632786895
8.428833685667614,4.958710811561596,7.055437071320406,-1.6307959702089418
8.478420793783231,4.844283976344568,7.039129111618316,-1.4356211117516013
8.526863633546677,4.742843937123458,7.024772900500801,-1.2569006524418858
8.574292072917912,4.652681268849464,7.012203893976381,-1.0924908997347118
8.620818885606406,4.572395610788486,7.0012789849790344,-0.9406070700870719
8.666542841714291,4.500838000557438,6.991872914278164,-0.7997530919284955
8.711551221719866,4.437064486474353,6.983875383358879,-0.6686641457803997
8.75592186658461,4.380299187377743,6.977188741901075,-0.5462603083733472
8.799724858458386,4.329904965960691,6.971726138817341,-0.4316093827159558
8.843023908117994,4.285360121318361,6.9674100449901815,-0.3238971449481147
8.885877509331177,4.246239795849056,6.9641710735407,-0.22240351866059785
8.928339907289667,4.212201058746974,6.9619470383540945,-0.12648347644398544
8.970461917877136,4.182970851611093,6.960682203589655,-0.03555172344192209
9.012291626393248,4.1583361598009345,6.960326686355235,0.050929571793459416
9.053874987991257,4.138135911734982,6.96083598207317,0.1334605654258048
9.095256347108608,4.122254214590788,6.962170587727428,0.21251147887317712
9.136478889254516,4.11061461561323,6.96429570251616,0.28852862082552805
9.177585035410647,4.103175139171838,6.967180988724415,0.3619389375836469
9.218616786802366,4.099923895396107,6.970800378100251,0.4331532733054474
9.259616025756328,4.100875090240599,6.975131910833306,0.5025684694110883
9.300624776658735,4.106065291988236,6.980157595527417,0.5705683899503591
9.341685429578616,4.11554982769848,6.985863279426921,0.6375239249859096
9.3828409278556,4.1293991967265145,6.99223851867678,0.7037919955111454
9.424134919822865,4.147695398659262,6.999276438631892,0.7697135602065784
9.465611873809458,4.170528081110204,7.006973574233958,0.8356106060424353
9.50731715462056,4.197990419929188,7.015329680294382,0.9017820913762825
9.549297058819853,4.230174651566334,7.024347501208145,0.968498802141653
9.591598805335517,4.267167185560222,7.034032489229562,1.0359970796308255
9.63427047719112,4.309043235306452,7.04439246002587,1.1044713831064052
9.677360909544184,4.355860918217233,7.055437173856934,1.1740656630221715
9.720919518726356,4.407654792793488,7.0671778304871555,1.2448635420127951
9.764996066654291,4.464428820521363,7.079626465907284,1.3168773319699782
9.809640354859505,4.526148765206161,7.092795239226984,1.3900359572365388
9.854901842511566,4.592734071507952,7.106695598799349,1.464171906763652
9.900829183226646,4.6640492980460575,7.121337317866986,1.5390074022933071
9.947469676207106,4.739895218488346,7.136727391889918,1.6141400453936714
9.99486862839199,4.819999746747363,7.152868792343855,1.6890282936712966
10.043068625859464,4.904008890517751,7.169759075280568,1.7629772162329638
10.092108714764642,4.991477992576513,7.187388847442898,1.8351250917000699
10.142023494690408,5.0818635844828925,7.205740098359899,1.904431541036726
10.192842130535237,5.174516257001105,7.224784413770267,1.969668035450875
10.244587293105248,5.268675051487366,7.244481094124775,2.029411790508035
10.29727404362012,5.363464002873525,7.264775212029855,2.082044254204881
10.350908683648855,5.457891622623327,7.285595654571904,2.125755617947585
10.405487599875089,5.550854299476604,7.30685321075138,2.1585570151962634
10.460996142869854,5.6411448080030135,7.328438780903343,2.178302297289162
10.517407590949885,5.727467325558243,7.350221803876234,2.182721439769307
10.574682264205467,5.8084605203295645,7.372049018273928,2.1694676527109364
10.632766869408764,5.882730311522877,7.393743694801037,2.136180023982294
10.691594172523992,5.948893712053124,7.4151054950408595,2.080562858386289
10.751083109644522,6.005634616706795,7.435911123624722,2.00048161479684
10.81113945581159,6.051771368262005,7.45591593977269,1.8940733412838378
10.87165716949421,6.086334340268214,7.474856673185529,1.7598667191958133
10.932520512896891,6.108649650294107,7.492455340377487,1.596903406058478
10.993607009399833,6.118422681183602,7.508424374438071,1.4048487694869014
11.054791236211669,6.115812800750644,7.522472862132941,1.1840771358548172
11.115949364219174,6.101489217188153,7.534313633491489,0.935715420952375
11.176964256391056,6.076658063151613,7.5436707877010125,0.6616305679027403
11.237730837022571,6.043053167191978,7.55028709338004,0.3643512773622588
11.29816136869449,6.002887645269322,7.553930606153663,0.046922861814520045
11.358190245147183,5.9587697790719565,7.554399834771808,-0.28729571710794816
11.417777942937903,5.913593269036,7.551526877600729,-0.6348738927751412
11.476913875628263,5.870417141806836,7.545178138672978,-0.9925654993044524
11.53561804704633,5.832352928048973,7.535252483679933,-1.357552551347755
11.59394157632682,5.802475664692654,7.521676958166456,-1.7276553190885815
11.651966332973746,5.7837713926515395,7.50440040497557,-2.1014964047691853
11.709804046900262,5.77912855849802,7.483385440927878,-2.4786177119938904
11.767595332485241,5.791375801597794,7.4585992638079395,-2.859559768751482
11.82550909050122,5.823365397436817,7.430003666120425,-3.245921010847444
11.883742744475587,5.878100825396567,7.39754445601195,-3.6404197790503385
11.942523752729553,5.958908495035536,7.361140258221447,-4.04698439823665
12.002112837679908,6.0696569222363435,7.32067041423908,-4.470897625150081
12.062809406902272,6.215030165577845,7.275961437987579,-4.91902108188635
12.12495970855805,6.400863007062707,7.226771227168716,-5.400120469831231
12.188968338628676,6.63453537649423,7.172770022470404,-5.925293652388488
12.255313692393619,6.92538183571574,7.113517085946519,-6.508442355400177
12.324567510750777,7.284941166642246,7.048432662392518,-7.1665443629661105
12.3974169224172,7.726496678570393,6.976767218762856,-7.918960667763972
12.474681889202904,8.262343317593011,6.897577612085216,-8.783595963015019
12.557305322378834,8.89469484369953,6.809741652455066,-9.764202825185645
12.646252270815829,9.59121937828694,6.712099624203209,-10.816217749271328
12.742164464598698,10.234382645319748,6.603937446710496,-11.775958161650282
12.844508291051895,10.573628953588925,6.486177865093993,-12.293845793580337
12.950244580587784,10.34364752064021,6.36323940715819,-12.00033589333652
13.053681055794186,9.607370417115709,6.243236048224825,-10.985534492458665
13.149754759965344,8.726610710584719,6.133380703300238,-9.756046420127989
13.237020867071191,7.94304228611054,6.035820239098959,-8.64954140140647
13.316451289932296,7.308401952050981,5.949324825084894,-7.738866073993088
13.389535309452805,6.8037714496510056,5.871936164344962,-6.998595072093178
13.457573023949315,6.400163790682487,5.80195021362403,-6.389229480268541
13.52157466185614,6.073445866584464,5.738057918821345,-5.877895729090454
13.582309120521986,5.805710378901543,5.67927896153044,-5.440277681000905
13.640366224311002,5.5839583350016,5.624876184720431,-5.058842069526218
13.696205807661018,5.398680287344583,5.574287764025169,-4.7209336315900625
13.750192610534464,5.242780365228289,5.527078427709268,-4.417351086532187
13.802620414186746,5.110821272238308,5.482904916843946,-4.141372970256129
13.85372862690913,4.998500877616136,5.441491187141385,-3.88810903140142
13.90371363568529,4.902285518145871,5.402610096827371,-3.6540713592786127
13.95273649086675,4.819149031570376,5.366069383234585,-3.4368895570074747
14.000927981182453,4.746385846447992,5.33170048766451,-3.2351169067892456
14.048391839646934,4.681480239458359,5.299349318596618,-3.04808870333856
14.095206642041518,4.62202334908888,5.268868431563233,-2.875802329456259
14.141426875532407,4.5656755682120425,5.24011040826867,-2.7187941025079687
14.187083631214527,4.510174682172631,5.21292246724359,-2.5779931470485136
14.232185378036254,4.453389267679443,5.187142535773106,-2.454539913344318
14.276719270713048,4.393412214339382,5.162597136639662,-2.3495679764003516
14.320653392856443,4.328681411041345,5.139101456875658,-2.263962212897774
14.363940206966856,4.258105750542961,5.116461834746681,-2.1981216811954756
14.406521264472286,4.181168179516155,5.094480617934726,-2.1517664957344533
14.448332946267447,4.097977430255712,5.072962952977382,-2.1238290327040477
14.489312720570004,4.009248552229849,5.051724662650342,-2.1124576625986538
14.529405206092303,3.916208223206143,5.030600086024355,-2.115137758117619
14.568567288324365,3.8204392209049445,5.00944870844318,-2.1289073499598716
14.606771680533415,3.7236928606993778,4.988159634943581,-2.1506233908025147
14.644008609140409,3.627703647827486,4.966653401035556,-2.177226705730544
14.680285645618683,3.534035770250273,4.94488113397825,-2.205960947594188
14.715626003321185,3.4439793528252087,4.922821524502308,-2.2345186713481544
14.750065796849437,3.3585006773921324,4.9004763377888265,-2.2611083060188832
14.783650803623358,3.2782394051288732,4.877865254728638,-2.2844524938123687
14.816433197674646,3.203539581838232,4.855020729790515,-2.3037375003078537
14.84846859349303,3.134499860307678,4.831983354787436,-2.3185352694786827
14.879813592096106,3.0710304490378566,4.808798002092649,-2.3287164953993784
14.910523896586485,3.0129079355485358,4.785510837138656,-2.3343676137227014
14.940652975941969,2.959822865692587,4.762167161001429,-2.3357190679186037
14.970251204598895,2.911417968368189,4.738809970322243,-2.3330877766216833
14.999365384282576,2.8673169418450355,4.715479092556026,-2.3268337752495225
15.028038553701027,2.82714485306525,4.692210754803531,-2.3173293757827835
15.05631000223168,2.7905416765669635,4.669037461045703,-2.3049385287269093
15.08421541899735,2.7571705586490403,4.645988075758434,-2.2900040159890023
15.11178712458384,2.726722229918283,4.623088035598544,-2.2728403644517075
15.139054346883023,2.6989167375365866,4.600359631954027,-2.253730754174691
15.166043514258389,2.673503405159958,4.57782232441228,-2.2329265899666875
15.192778548309988,2.6502596927663498,4.555493058512614,-2.2106487552195766
15.219281145237652,2.6289894350453995,4.533386570960418,-2.187089852383769
15.245571039588105,2.609520787094683,4.51151567243658,-2.162416954535398
15.271666247459052,2.591704094838418,4.4898915028912265,-2.1367745552458492
15.297583288407436,2.575409827685258,4.468523757338768,-2.1102875203907474
15.323337386684289,2.560526655281424,4.44742088213486,-2.083063926412974
15.348942653237103,2.5469597125329067,4.426590242870731,-2.055197724159455
15.374412250362433,2.5346290723198543,4.406038265629136,-2.0267712031510827
15.399758541085632,2.523468429636228,4.3857705535976255,-1.99785725365192
15.424993225381995,2.513423991388204,4.365791981061106,-1.9685214373132436
15.450127465295877,2.504453560700301,4.346106766687973,-1.9388238844327144
15.47517200090288,2.4965258018362073,4.326718527843647,-1.9088210390458422
15.500137258921242,2.4896196707112273,4.307630317453188,-1.8785672735538916
15.525033455628355,2.483723995740482,4.288844644717649,-1.84811639331221
15.54987069558576,2.4788371939370406,4.270363480784527,-1.8175230491407146
15.57465906752513,2.474967107402737,4.25218825029312,-1.7868440724208694
15.599408738599159,2.4721309453965006,4.234319809568911,-1.7561397434903352
15.624130048053123,2.4703553168386105,4.216758412134007,-1.7254749994986314
15.64883360122151,2.4696763372697315,4.199503662139021,-1.694920582720723
15.673530364594207,2.470139792805634,4.182554456311814,-1.6645541244541482
15.698231762522264,2.4718013413934794,4.165908915067273,-1.6344611529152995
15.722949775936199,2.4747267285628927,4.14956430353812,-1.604736005830556
15.747697043221828,2.478991990746924,4.1335169434798145,-1.5754826194871463
15.772486963129298,2.4846836139872646,4.117762117284943,-1.5468151556437837
15.79733379926917,2.491898609290336,4.102293965728505,-1.5188584156674798
