th1 (rad),w1 (rad/s),th2 (rad),w2 (rad/s)
2.8011315239932597,-0.9592318572302164,2.725260662762122,-1.0010077523574485
2.7915392054209573,-0.9864610086399176,2.7152505852385476,-1.0127915292619558
2.7816745953345583,-1.0146271261983106,2.705122669945928,-1.024492908424966
2.771528324072575,-1.0437676192890102,2.694877740861678,-1.0360792668332806
2.761090647879685,-1.0739208029081082,2.6845169481933455,-1.047516870802634
2.7503514398506037,-1.105125861627035,2.6740417794853193,-1.0587709244308356
2.7393001812343334,-1.1374227991229557,2.663454070241011,-1.0698056423381543
2.727925953243104,-1.1708523710132832,2.6527560138176294,-1.0805843508562556
2.7162174295329713,-1.2054559983927964,2.641950170309067,-1.0910696224467156
2.704162869549043,-1.2412756590882494,2.6310394740846,-1.1012234488251889
2.6917501129581605,-1.2783537532126137,2.620027239596348,-1.1110074590414474
2.6789665754260343,-1.3167329391164853,2.6089171650059333,-1.1203831896202638
2.6657992460348696,-1.3564559352965733,2.5977133331097306,-1.129312414801709
2.6522346866819038,-1.3975652832318564,2.5864202089617137,-1.1377575459251104
2.638259033849585,-1.4401030654819174,2.5750426335024628,-1.145682110064988
2.623858003194766,-1.4841105727093296,2.5635858124018127,-1.153051319126368
2.6090168974676726,-1.5296279125961976,2.552055299210549,-1.1598327417046141
2.5937206183417105,-1.5766935529412844,2.540456971793503,-1.165997091057818
2.5779536828122978,-1.6253437905886847,2.528797000882925,-1.17151914345214
2.561700244906411,-1.675612137308443,2.5170818094484035,-1.17637880181862
2.5449441235333263,-1.727528613401289,2.5053180214302175,-1.1805623199655717
2.5276688373993133,-1.7811189397364828,2.493512398230562,-1.1840637023439538
2.5098576480019483,-1.8364036192859168,2.481671761207122,-1.1868862933361206
2.4914936118090893,-1.8933969001546809,2.4698028982737608,-1.1890445679497608
2.4725596428075427,-1.9521056138287478,2.4579124525942633,-1.1905661323117618
2.4530385866692552,-2.0125278850980757,2.4460067912711456,-1.1914939370822037
2.4329133078182745,-2.074651714127984,2.4340918519003236,-1.1918886994178854
2.4121667906769946,-2.1384534367131183,2.422172964906145,-1.1918315189647655
2.3907822563098633,-2.2038960761094977,2.410254649716497,-1.191426660136088
2.3687432955487684,-2.2709276091942026,2.398340383115136,-1.1908044563213698
2.3460340194568263,-2.339479181122202,2.3864323385519226,-1.1901242715465523
2.3226392276456043,-2.409463316009137,2.374531095836457,-1.1895774316597574
2.298544594485513,-2.4807721860457197,2.3626353215198597,-1.1893900110089464
2.2737368726250557,-2.553276017023158,2.3507414214097704,-1.1898253330947277
2.248204112454824,-2.62682172320628,2.338843168078823,-1.1911860168884365
2.221935895222761,-2.7012318769680936,2.3269313079099385,-1.1938153773388773
2.19492357645308,-2.7763041261994923,2.3149931541365496,-1.198097972841677
2.167160535191085,-2.8518111724355006,2.3030121744081327,-1.2044590885634798
2.13864242346673,-2.927501411994786,2.290967583522498,-1.2133629571748814
2.109367409346782,-3.0031003186805423,2.278833953950749,-1.2253095519441481
2.0793364061599764,-3.0783126082089654,2.2665808584313076,-1.2408298440333019
2.0485532800778867,-3.1528251717051257,2.2541725599909745,-1.2604794964467763
2.0170250283608353,-3.226310700889224,2.241567765026507,-1.2848310681092252
1.984761921351943,-3.2984318562604877,2.2287194543454145,-1.3144649155562513
1.951777602789338,-3.368845759574727,2.215574805189852,-1.3499590952591085
1.9180891451935909,-3.4372085329375786,2.2020752142372606,-1.3918786723046506
1.883717059864215,-3.503179569009758,2.188156427514214,-1.4407649158358549
1.8486852641741174,-3.5664252087148105,2.1737487783558556,-1.4971248951649243
1.8130210120869692,-3.626621529517346,2.1587775294042064,-1.5614219746114173
1.7767547967917958,-3.6834560088726964,2.1431633096580924,-1.6340676389632698
1.7399202367030688,-3.736627918411901,2.1268226332684597,-1.7154149722225496
1.70255395751895,-3.785847414621049,2.1096684835462343,-1.8057539744059985
1.6646954833727394,-3.8308334080832234,2.0916109438021744,-1.9053087536317075
1.626387149291907,-3.871310402255806,2.072557856265857,-2.0142364934414303
1.587674045269349,-3.90700458285768,2.052415491331443,-2.1326279852933037
1.548603999440772,-3.9376395028442954,2.03108921147851,-2.2605094445898524
1.5092276044123292,-3.962931743098523,2.0084841170326113,-2.397845299362245
1.469598286981344,-3.9825869373847267,1.9845056640389889,-2.5445416505422553
1.4297724176074966,-3.9962965373011343,1.9590602475335663,-2.700450142616403
1.3898094522344853,-4.003735666397967,1.9320557461074024,-2.865372040731977
1.3497720955705057,-4.004562380327762,1.9034020257000825,-3.0390623708460724
1.3097264717672281,-3.998418619404178,1.8730114019916217,-3.2212340292206907
1.2697422855731864,-3.9849331178880556,1.8407990616994148,-3.411561793428976
1.2298929543943058,-3.9637265265281116,1.806683443765125,-3.6096861571762378
1.1902556891290246,-3.9344190169996347,1.7705865821933626,-3.8152168544851146
1.1509114989590283,-3.896640675234272,1.7324344136485115,-4.027735823822731
1.1119450922066856,-3.850045063166985,1.6921570554102843,-4.246799177073406
1.0734446415750156,-3.7943264454421013,1.6496890636395503,-4.471937467375447
1.0355013771205945,-3.7292413518761256,1.6049696889657958,-4.702653176934406
0.9982089636018333,-3.6546353919711794,1.5579431571964517,-4.9384138529863
0.9616626096821215,-3.5704765659395545,1.5085590186665887,-5.178638691938548
0.925957844022726,-3.476896727681148,1.4567726317472032,-5.422675605955898
0.8911888767459145,-3.374243320242263,1.402545875687644,-5.669764934344521
0.8574464435434919,-3.263143933218341,1.3458482263441989,-5.918985090311171
0.8248150042113085,-3.1445864160523906,1.2866583754410872,-6.169174816470443
0.7933691400507846,-3.020016806074567,1.2249666272763828,-6.418826881539853
0.763168971990039,-2.8914554536419512,1.1607783584609843,-6.665949941843439
0.7342544174536194,-2.761627267510404,1.09411885904255,-6.90790047471409
0.7066381447785154,-2.6340933645008,1.0250398542954091,-7.141197338423296
0.6802972111335074,-2.5133570436646417,0.9536278809111761,-7.361349846409055
0.655163640696861,-2.4048968665801653,0.8800143824470855,-7.5627566837538405
0.6311146720310593,-2.3150580844807975,0.8043868156095471,-7.738762304072065
0.6079640911862514,-2.2507233678030207,0.7269991925688264,-7.881973516906917
0.5854568575082212,-2.2187068478948686,0.6481794573997572,-7.984913065096016
0.5632697890292725,-2.224893956026268,0.5683303267487971,-8.040989857388256
0.5410208494690099,-2.27327970451343,0.48792042817491454,-8.045601340322532
0.5182880524238755,-2.365181990952121,0.4074644147716892,-7.9970271750371555
0.49463623251435435,-2.4989241892994363,0.32749414302131763,-7.896754248222265
0.46964699062136,-2.670131749051754,0.24852660053909498,-7.749067525899853
0.4429456731308425,-2.872536099960352,0.17103592528009645,-7.56006005457239
0.41422031213123894,-3.0989885739878704,0.09543532473437255,-7.336446339328814
0.38323042639136023,-3.3423715225862165,0.022070861341084408,-7.0845649060198905
0.34980671116549805,-3.5962231362445474,-0.048774787719114504,-6.809777269739148
0.3138444798030526,-3.85505013752752,-0.11687256041650598,-6.516267291553209
0.27529397842777736,-4.114401008960079,-0.18203523333203808,-6.207126630639008
0.23414996833817658,-4.370797667431293,-0.24410649963842818,-5.884590026456493
0.19044199166386366,-4.6216046759734155,-0.3029523999029931,-5.550316200222102
0.14422594490412952,-4.864883850091272,-0.3584555619052141,-5.205654406660218
0.09557710640321679,-5.099255714151105,-0.4105121059718163,-4.85187197530892
0.04458454926170574,-5.323772302537299,-0.4590308257249055,-4.490340099760459
-0.008653173763667255,-5.5377968606343275,-0.5039342267225101,-4.1226864981065825
-0.06403114237001054,-5.74088228877113,-0.545161091703576,-3.750928384697854
-0.12143996525772183,-5.932639520080037,-0.5826703755505545,-3.3776002309978197
-0.18076636045852218,-6.112588402208357,-0.6164463778605327,-3.0058891094693627
-0.24189224448060576,-6.279987184518108,-0.6465052689552263,-2.639785470071683
-0.30469211632578685,-6.433643588336892,-0.6729031236559432,-2.2842470433340596
-0.36902855220915576,-6.571722685767295,-0.6957455940892838,-1.9453552281632585
-0.4347457790668287,-6.691586413400605,-0.7151991463709164,-1.6304141567348003
-0.5016616432008347,-6.789726005041402,-0.7315032879382645,-1.3479038676260937
-0.5695589032512487,-6.8618742485522946,-0.7449823266145255,-1.1071625909805678
-0.6381776457367716,-6.903388823361696,-0.7560539525243312,-0.9176694989329451
-0.7072115339703886,-6.909948872707737,-0.7652306475136607,-0.7878754521670117
-0.776311022697466,-6.878481373973893,-0.7731094020353307,-0.7237179978959266
-0.8450958364372049,-6.808062062547626,-0.78034658201429,-0.7272120588242899
-0.9131764570626811,-6.700429463174309,-0.7876187026025329,-0.7956637142136962
-0.9801807516944242,-6.559841251950281,-0.7955753397446699,-0.92191715084889
-1.045779164213927,-6.392292058522179,-0.8047945112531588,-1.0956094474889095
-1.1097020847991488,-6.20441192728335,-0.8157506057280479,-1.3049524268166983
-1.1717462040719824,-6.002457660139101,-0.8288001299962149,-1.538409882213503
-1.2317707806733733,-5.791666170581966,-0.8441842288183499,-1.7858426113775197
-1.289687442379193,-5.576014454200031,-0.8620426549321251,-2.039029025224556
-1.3454475869211935,-5.358279397263434,-0.8824329451843707,-2.2917041713405113
-1.3990303808938278,-5.140252384751576,-0.9053499868977758,-2.5393286668577715
-1.4504329047413436,-4.92299551664899,-0.9307432735663536,-2.778759948798762
-1.4996628599078334,-4.707075536673419,-0.9585308730543411,-3.007928473175551
-1.5467336152745677,-4.49275035585854,-0.9886101577860966,-3.2255639709041724
-1.591661118833153,-4.2801054463090935,-1.0208657974951383,-3.430982163711847
-1.634462173296244,-4.069147244753421,-1.0551756191322568,-3.623925981993428
-1.6751536457437783,-3.859863396866102,-1.0914148789521911,-3.80444992082268
-1.7137522797124394,-3.6522590844426994,-1.1294593781604179,-3.972836067481404
-1.7502748705568663,-3.4463769887607683,-1.1691877388352319,-4.129532229660685
-1.7847386404444738,-3.2423066630668047,-1.2104830611318387,-4.2751048730920855
-1.8171617070751418,-3.0401875836528114,-1.2532341098627595,-4.410201587426434
-1.8475635829116699,-2.840208994089588,-1.297336125737024,-4.535519357191744
-1.8759656728525658,-2.642608806815063,-1.3426913193089414,-4.651776039074061
-1.9023917609207164,-2.447673203037395,-1.3892090796996819,-4.759683227672271
-1.9268684929510904,-2.255738095870313,-1.4368059119764045,-4.85991923767961
-1.9494258739097936,-2.067193217177961,-1.4854051043532006,-4.953101351325443
-1.9700978060815733,-1.8824891819824487,-1.5349361178664551,-5.039756887064842
-1.9889226979013976,-1.7021473994780585,-1.5853336867371035,-5.12029315445
-2.005944171896178,-1.5267720587890508,-1.6365366182816035,-5.1949670896174895
-2.0212118924840685,-1.357062551931243,-1.6884862891777783,-5.263856423067405
-2.034782518003381,-1.1938235767803345,-1.7411248534084525,-5.326835671712016
-2.0467207537711842,-1.037968856520155,-1.7943932101255726,-5.38356199676022
-2.057100442336386,-0.8905131659768156,-1.8482288300931748,-5.4334777106962
-2.0660055739961543,-0.7525466793731422,-1.9025636072001368,-5.475837272095682
-2.0735310407898857,-0.6251863334668638,-1.9573219799210937,-5.509765912276775
-2.079782904124554,-0.5095018157913388,-2.0124196390438613,-5.534353376547181
-2.0848779222824674,-0.4064194360936818,-2.0677631728093333,-5.548778912272892
-2.088942116643404,-0.316614906818193,-2.123250961932062,-5.552453353509379
-2.092108265711586,-0.24041366477906712,-2.178775495467156,-5.5451539487102
-2.094512402359377,-0.17772119201978737,-2.234227034954258,-5.527122297640514
-2.096289614279575,-0.12800256762464715,-2.289498257930663,-5.499099819638031
-2.0975696399558212,-0.09031968394968523,-2.3444892561270434,-5.462289305275949
-2.098472836795318,-0.06341969787899672,-2.399112149179803,-5.418250643739964
-2.099107033774108,-0.04585545727457691,-2.4532946556172024,-5.368755645534435
-2.0995655883468536,-0.03611298798238378,-2.506982212072547,-5.315634180165104
-2.099926718226677,-0.03272389168547309,-2.560138553874198,-5.2606400459924085
-2.100253957143532,-0.03434892183831479,-2.612744954334122,-5.205353844062881
-2.100597446361915,-0.039828653502925665,-2.664798492774751,-5.1511275297416965
-2.100995732896944,-0.04820459165129236,-2.716309768072168,-5.0990657864669044
-2.1014777788134573,-0.05871795126595324,-2.767300425936837,-5.050034554619866
-2.102064958326117,-0.07079412929392216,-2.8178007714830358,-5.004686286229488
-2.1027728996190564,-0.08401977392428175,-2.8678476343453307,-4.963493147569198
-2.1036130973582994,-0.09811749771315316,-2.9174825658210226,-4.926781923764291
-2.1045942723354307,-0.11292143888525837,-2.9667503850586656,-4.894766810005363
-2.1057234867242833,-0.12835540443158333,-3.015698053158719,-4.867578165752897
-2.107007040768599,-0.14441430844002903,-3.0643738348162484,-4.845286584405583
-2.108451183852999,-0.16114899046117293,-3.112826700660304,-4.827922387828335
-2.1100626737576107,-0.17865415851810124,-3.1611059245385875,-4.8154910392233665
-2.111849215342792,-0.19705905081383507,-3.2092608349308214,-4.807985113503654
-2.1138198058509303,-0.2165203725719422,-3.257340686065858,-4.805393473058001
-2.11598500957665,-0.23721708703791058,-3.305394620796438,-4.807708236507404
-2.118357180447029,-0.25934668931443516,-3.353471703161512,-4.814930040141727
-2.120950647340173,-0.2831226491539111,-3.401621003562929,-4.8270719991882425
-2.1237818738317125,-0.30877276386031405,-3.4498917235548117,-4.844162690218533
-2.1268696014703155,-0.3365382102752701,-3.498333350456997,-4.8662484012911476
-2.130234983573068,-0.36667312370409144,-3.546995834469908,-4.893394833542873
-2.133901714810109,-0.3994445613980933,-3.595929782805337,-4.925688385706053
-2.13789616042409,-0.4351327293451125,-3.6451866666623975,-4.963237109476878
-2.1422474877175413,-0.47403136430641263,-3.694819037757166,-5.006171386597769
-2.146987801360605,-0.5164481688709187,-3.744880751623144,-5.054644345794513
-2.1521522830493143,-0.5627051961691009,-3.795427195081089,-5.108832007316343
-2.1577793350110053,-0.613139072940311,-3.8465155151542527,-5.168933112916112
-2.163910725740408,-0.668100934767689,-3.898204846283414,-5.235168567974027
-2.170591735088085,-0.7279559251482215,-3.950556531963154,-5.307780388533717
-2.177871294339567,-0.7930820801492543,-4.003634335848491,-5.387030007830316
-2.1858021151410596,-0.8638683821406001,-4.057504635926795,-5.473195753154823
-2.1944407989624657,-0.9407117189820131,-4.112236593458343,-5.5665692535831095
-2.2038479161522857,-1.0240124288908417,-4.167902285994174,-5.667450481605304
-2.2140880404411942,-1.1141680464632724,-4.224576790810227,-5.776141067164671
-2.225229720905827,-1.2115647935780878,-4.282338201481874,-5.892935452398245
-2.237345368841608,-1.3165662836543517,-4.341267556005857,-6.018109382683005
-2.250511031678151,-1.4294988353128422,-4.401448649832687,-6.151905160458285
-2.2648060200312794,-1.550632732423689,-4.462967701437269,-6.294513032777786
-2.2803123473555162,-1.6801587380984617,-4.525912831765047,-6.446048057240191
-2.297113934736501,-1.8181591942583277,-4.590373312337449,-6.606521816655694
-2.3152955266790842,-1.9645731491007472,-4.656438530504006,-6.77580846206793
-2.3349412581700917,-2.1191551954986805,-4.724196615124685,-6.953604797677047
-2.3561328101250787,-2.2814281270993586,-4.793732663101455,-7.139384529601574
-2.378947091396072,-2.450630184279967,-4.865126508397471,-7.332347437671491
-2.403453393238872,-2.6256586240709683,-4.938449982774186,-7.531365145247931
-2.429709979479582,-2.80501264070357,-5.013763634226665,-7.734926384719281
-2.4577601058866176,-2.9867402730063395,-5.091112898073858,-7.9410861672846575
-2.487627508616681,-3.1683957644417267,-5.170523759746704,-8.14742496616656
-2.5193114662610983,-3.3470156708417154,-5.25199800940837,-8.3510256979753
-2.5527816229695155,-3.5191234652340846,-5.335508266388123,-8.548477582201228
-2.5879728576218564,-3.6807729388241075,-5.420993042210135,-8.735916383531949
-2.6247805870100973,-3.8276397145473875,-5.508352206045455,-8.909109532507966
-2.6630569841555713,-3.955167087064837,-5.597443301370535,-9.063591675027277
-2.7026086550262196,-4.058766851953834,-5.688079218120808,-9.19485107995825
-2.743196323545758,-4.134067973361717,-5.78002772892039,-9.298560274191816
-2.7845370032793753,-4.177196763536462,-5.8730133316623085,-9.370836134486858
-2.8263089709147398,-4.185063343703072,-5.966721693007177,-9.408506894852698
-2.8681596043517703,-4.155622643090356,-6.060806761955703,-9.40935791098778
-2.909715830782674,-4.088076162348627,-6.154900341065581,-9.372326239186286
-2.95059659240616,-3.982984592392321,-6.248623603457443,-9.297617223689425
-2.990426438330083,-3.842271305012679,-6.341599775694338,-9.186724459194032
-3.02884915138021,-3.669111356217971,-6.433467020286278,-9.042346682232024
-3.0655402649423897,-3.4677172323476477,-6.523890487108598,-8.868209279166473
-3.1002174372658664,-3.243047621711554,-6.612572579900262,-8.668811433455524
-3.132647913482982,-3.000475688121945,-6.699260694234817,-8.449129677329406
-3.1626526703642015,-2.7454565158119184,-6.783751991008111,-8.214312707861248
-3.1901072355223206,-2.48322930644722,-6.865895118086724,-7.969400126310745
-3.2149395285867928,-2.2185801547965234,-6.945589119349831,-7.719090247559543
-3.237125330134758,-1.9556786806349802,-7.022780021825427,-7.467571547254063
-3.256682116941108,-1.6979895453574652,-7.097455737297968,-7.218421353244204
-3.2736620123946825,-1.448250303954778,-7.16963995083041,-6.9745663008805625
-3.2881445154342304,-1.2085012830189399,-7.239385613839215,-6.738293131694371
-3.3002295282644196,-0.9801511847916752,-7.306768545156159,-6.511295824239531
-3.3100310401123365,-0.7640630457163071,-7.371881503398555,-6.294745214310976
-3.3176716705694997,-0.5606478683150038,-7.434828955541665,-6.089369229233963
-3.32327814925265,-0.3699566257644531,-7.495722647834005,-5.895534666355867
-3.3269777155102944,-0.19176463095863258,-7.554677994497563,-5.713324346246637
-3.328895361819881,-0.0256450236359915,-7.61181123796003,-5.542606009732973
-3.329151812056241,0.12896980458020657,-7.667237298057359,-5.383091301988932
-3.327862114010439,0.2727386384117712,-7.721068211077249,-5.234384571891651
-3.3251347276263212,0.4063726871787888,-7.7734120567961655,-5.096022086207652
-3.321071000754533,0.5306062168848986,-7.824372277658242,-4.967502731149349
-3.3157649385856844,0.6461750130891334,-7.874047304969735,-4.848311465515007
-3.309303188454793,0.7538011803124284,-7.922530419624885,-4.737936799809989
-3.301765176651669,0.8541829367826046,-7.969909787622985,-4.6358834806127405
-3.293223347283843,0.9479882554864061,-8.016268622429113,-4.541681412311182
-3.2837434647289787,1.0358513993373613,-8.061685436552224,-4.454891683606362
-3.273384950735605,1.1183715802692944,-8.106234353388288,-4.375110404086315
-3.262201234932912,1.1961131296528882,-8.149985457429151,-4.301970907031784
-3.250240103636383,1.269606697151301,-8.19300516649947,-4.235144742221919
-3.23754403666487,1.339351096927091,-8.235356613921688,-4.174341766583504
-3.224150525695599,1.4058154955179158,-8.277100031587523,-4.119309538363344
-3.2100923707404196,1.4694416866824938,-8.318293126971156,-4.069832127998667
-3.1953979538735946,1.530646226823177,-8.358991448251142,-4.025728371142943
-3.1800914916053626,1.5898222114162637,-8.399248731962572,-3.9868495011284097
-3.1641932694912,1.6473404588625444,-8.439117226973856,-3.953076004250826
-3.147719864902575,1.7035498336878938,-8.478647987016364,-3.924313436914635
-3.130684366565696,1.7587763869594628,-8.51789112138551,-3.9004868257091103
-3.1130966026961016,1.8133209209959258,-8.556895989642602,-3.8815331402529964
-3.0949633934861422,1.8674545053647131,-8.595711321045131,-3.867391191526882
-3.0762888484324953,1.9214113979998513,-8.634385232960401,-3.8579881856346314
