th1 (rad),w1 (rad/s),th2 (rad),w2 (rad/s),a1 (rad/s^2),a2 (rad/s^2)
1.490457277759269,-2.2550034027942907,5.791428836970546,-1.759815377876488,-10.141413036310515,5.232392141918203
1.467907243731326,-2.356417533157396,5.773830683191781,-1.707491456457306,-9.908709255482387,5.961347483739371
1.444343068399752,-2.4555046257122197,5.756755768627207,-1.6478779816199123,-9.665124306695192,6.714035321342266
1.4197880221426298,-2.5521558687791717,5.740276988811008,-1.5807376284064896,-9.413253237307346,7.487290518792702
1.394266463454838,-2.646288401152245,5.724469612526943,-1.5058647232185625,-9.156111420385875,8.277788457737708
1.3678035794433157,-2.7378495153561038,5.709410965294757,-1.4230868386411855,-8.897135570449647,9.082110339595875
1.3404250842897547,-2.8268208710606,5.695180096908345,-1.3322657352452267,-8.640178913736046,9.8968243136452
1.3121568755791486,-2.9132226601979605,5.681857439555893,-1.2332974921087747,-8.389500672278714,10.718583100857243
1.283024648977169,-2.9971176669207478,5.669524464634805,-1.1261116611002022,-8.149750541226032,11.544238303285978
1.2530534723079616,-3.078615172333008,5.658263348023803,-1.0106692780673425,-7.925949478517712,12.370971054216708
1.2222673205846315,-3.157874667118185,5.64815665524313,-0.8869595675251755,-7.7234688683717865,13.196438134431485
1.1906885739134496,-3.235109355801903,5.639287059567878,-0.7549951861808606,-7.548010935859967,14.018932232979402
1.1583374803554305,-3.310589465160503,5.631737107706069,-0.6148058638510665,-7.405594139509158,14.837554757539527
1.1252315857038255,-3.3846454065555944,5.625589049067559,-0.4664303162756712,-7.3025481055796,15.652399592789113
1.0913851316382697,-3.4576708876113904,5.6209247459048015,-0.3099063203477801,-7.245523441517558,16.46474654535291
1.0568084227621557,-3.530126122026566,5.617825682701324,-0.145258854894251,-7.241522426502456,17.27726394880939
1.02150716154189,-3.6025413462915905,5.616373094152381,0.027513784593842933,-7.297957070163623,18.09422102196371
0.9854817480789742,-3.675520916993227,5.61664823199832,0.20845599481348,-7.422741285604741,18.921711974953535
0.9487265389090419,-3.7497483298492744,5.618732791946455,0.39767311456301535,-7.6244238174847965,19.767895288662032
0.9112290556105491,-3.8259925680241222,5.622709523092085,0.5953520674496356,-7.912367853969623,20.643252555419146
0.872969129930308,-3.9051162465638183,5.628663043766581,0.8017845930038271,-8.296981422742547,21.560870838061643
0.8339179674646697,-3.9880860607912436,5.63668088969662,1.0173933013844436,-8.789998686164353,22.53674898021199
0.7940371068567573,-4.075986047652887,5.6468548227104645,1.2427607911865635,-9.404804039237142,23.590118536303027
0.7532772463802284,-4.170034088045258,5.65928243062233,1.4786619765495939,-10.156774429543592,24.74374809422963
0.7115769054997758,-4.271601832340695,5.674069050387826,1.7260994574918902,-11.063582737182069,26.024154604124814
0.6688608871763688,-4.382237659712516,5.691330044962744,1.9863410035331384,-12.145341348065617,27.4615557495605
0.6250385105792436,-4.503691073193171,5.711193454998075,2.260956561028743,-13.424341519254698,29.0892231713879
0.5800015998473119,-4.637934488385718,5.733803020608363,2.5518487927426223,-14.923906404430989,30.94156141642996
0.5336222549634547,-4.787173552430028,5.759321508535789,2.8612644069069217,-16.665422599309792,33.04960050432316
0.4857505194391544,-4.953827778423126,5.787934152604858,3.1917604119501535,-18.661766224666795,35.43139867007906
0.43621224165492317,-5.140445440669795,5.81985175672436,3.546074398650944,-20.90380030099358,38.072694898968024
0.38480778724822523,-5.3494834436797305,5.85531250071087,3.9268013476406245,-23.334014113316897,40.88950467290341
0.3313129528114279,-5.5828235848129,5.894580514187276,4.335696394369658,-25.797625474710603,43.65911898820311
0.2754847169632989,-5.840799839560006,5.937937478130973,4.772287584251689,-27.95844729094228,45.90180005432353
0.21707671856769883,-6.120384312469429,5.98566035397349,5.231305584794924,-29.173570822959256,46.70511207014927
0.15587287544300454,-6.412120020699021,6.037973409821439,5.698356705496417,-28.36499142970579,44.54507209346438
0.09175167523601434,-6.695769934996079,6.094956976876404,6.143807426431061,-24.058389586100258,37.34442730887756
0.024793975886053546,-6.936353830857081,6.156395051140715,6.517251699519837,-14.965483245967667,23.29836822206097
-0.044569562422517264,-7.086008663316758,6.221567568135913,6.750235381740446,-1.3623370396230328,2.821584247001888
-0.11542964905568484,-7.099632033712988,6.289069921953318,6.778451224210465,13.728995162435476,-19.785592474001636
-0.18642596939281472,-6.962342082088633,6.356854434195422,6.580595299470448,25.806663485022312,-38.12620522678714
-0.25604939021370104,-6.70427544723841,6.422660387190127,6.199333247202577,32.22553343478865,-48.417825809829736
-0.32309214468608516,-6.382020112890523,6.484653719662153,5.715154989104279,33.5259082995381,-51.37821968969708
-0.3869123458149904,-6.046761029895142,6.541805269553196,5.201372792207309,31.752401362059732,-49.866848627411656
-0.4473799561139418,-5.729237016274545,6.593818997475269,4.702704305933192,28.687315522163946,-46.39426475953207
-0.5046723262766872,-5.442363861052906,6.640846040534601,4.2387616583378716,25.362656136851353,-42.42529084488345
-0.5590959648872162,-5.188737299684393,6.68323365711798,3.814508749889037,22.2462546374242,-38.632866815788645
-0.6109833378840601,-4.966274753310151,6.72137874461687,3.4281800817311505,19.501344727543312,-35.259325519433254
-0.6606460854171616,-4.7712613060347175,6.755660545434181,3.075586826536818,17.15263804204995,-32.3488843777378
-0.7083586984775088,-4.599734925614218,6.786416413699549,2.75209798275944,15.170549448271895,-29.86626262096869
-0.754356047733651,-4.448029431131499,6.8139373935271434,2.453435356549753,13.509246815272467,-27.750771357344647
-0.7988363420449659,-4.312936962978775,6.838471747092641,2.1759276429763066,12.122328314422454,-25.939000353973647
-0.8419657116747536,-4.1917136798345505,6.860231023522404,1.91653763943657,10.96844474491914,-24.37330486738394
-0.8838828484730992,-4.082029232385359,6.87939639991677,1.6728045907627307,10.012653315362478,-23.004204806692382
-0.9247031407969528,-3.9819026992317346,6.896124445824397,1.4427625426958068,9.226095125053305,-21.790347733598583
-0.9645221677892701,-3.8896417479812015,6.910552071251355,1.224859065359821,8.585117790649404,-20.697625389630545
-1.0034185852690822,-3.8037905700747077,6.922800661904954,1.0178828114635157,8.070306876688413,-19.698106541957717
-1.0414564909698294,-3.7230875013078237,6.932979490019589,0.8209017460439385,7.665601813292795,-18.769040081953932
-1.0786873659829077,-3.646431483174896,6.941188507480028,0.6332113452243991,7.357549429126715,-17.89200638891603
-1.1151516808146567,-3.572855988883629,6.947520620932272,0.45429128133523883,7.134698743909213,-17.052222852219792
-1.150880240703493,-3.501509001444537,6.9520635337456245,0.2837690528130409,6.98712285113153,-16.237983042458318
-1.1858953307179385,-3.4316377729332217,6.954901224273755,0.1213892223884577,6.906049120781267,-15.440202289781675
-1.2202117084472708,-3.362577281725409,6.95611511649764,-0.033012800509359064,6.88357942958711,-14.6520437430296
-1.2538374812645248,-3.293741487429538,6.955784988492546,-0.17953323793965506,6.912484197017266,-13.86860321189387
-1.2867748961388201,-3.224616645459365,6.95398965611315,-0.31821927005859374,6.986056271326689,-13.086636008801635
-1.3190210625934138,-3.1547560827460983,6.950807463412564,-0.44908563014661007,7.098012698568565,-12.304313669471345
-1.3505686234208747,-3.0837759557604127,6.946316607111098,-0.5721287668413235,7.242434038868813,-11.52100246669582
-1.3814063829784788,-3.0113516153717246,6.940595319442685,-0.6873387915082817,7.413732237037783,-10.737058910640648
-1.411519899132196,-2.9372142930013467,6.933721931527602,-0.7947093806146882,7.606639213768174,-9.95363993005983
-1.4408920420622096,-2.861147900863665,6.925774837721455,-0.8942457799152865,7.8162094111628235,-9.172527187615247
-1.4695035210708463,-2.7829858067520368,6.916832379922303,-0.985971051791439,8.037830562246027,-8.395966069977565
-1.4973333791383667,-2.7026075011295765,6.9069726694043885,-1.0699307124912145,8.267237983785606,-7.626520407010633
-1.5243594541496626,-2.6199351212917206,6.8962733622794765,-1.146195916561321,8.500528711148016,-6.8669440301326725
-1.5505588053625798,-2.5349298341802404,6.884811403113863,-1.2148653568626477,8.734172778876356,-6.120070003417484
-1.5759081037043823,-2.447588106391477,6.872662749545237,-1.2760660568968225,8.965019867288111,-5.3887178768511035
-1.600383984768297,-2.357937907718596,6.859902088976268,-1.3299532356653336,9.190300349283337,-4.675618733326171
-1.623963363845483,-2.2660349042257626,6.846602556619615,-1.3767094229985954,9.407620455093971,-3.983357224519861
-1.6466237128877406,-2.171958699674823,6.832835462389629,-1.416542995243794,9.614951809284703,-3.3143292869217738
-1.6683432998844887,-2.075809181581976,6.818670032437191,-1.4496862881130117,9.810615979884224,-2.6707138435125266
-1.6891013917003084,-1.977703021783134,6.80417316955606,-1.4763934265481369,9.993264921787969,-2.0544565503244643
-1.7088784219181397,-1.8777703725652544,6.789409235290579,-1.4969379920513814,10.161858312579588,-1.4672635413293527
-1.7276561256437921,-1.7761517894394585,6.7744398553700655,-1.511610627464675,10.315638791839227,-0.9106031455172737
-1.7454176435381867,-1.6729954015210662,6.759323749095419,-1.5207166589198478,10.45410605078027,-0.3857136726600055
-1.7621475975533973,-1.5684543410132634,6.74411658250622,-1.5245737956464478,10.576990603429687,0.10638443948742882
-1.77783214096353,-1.4626844349789665,6.728870844549756,-1.5235099512515735,10.684227926830902,0.5648735828136379
-1.7924589853133197,-1.3558421557106575,6.71363574503724,-1.5178612154234372,10.775933505278154,0.9891222480441906
-1.8060174068704262,-1.248082820657876,6.698457132883005,-1.5079699929429953,10.852379167157222,1.3786675556843946
-1.818498235077005,-1.1395590289863038,6.683377432953575,-1.4941833173861514,10.913970972676703,1.733197761327518
-1.829893825366868,-1.0304193192595368,6.668435599779714,-1.4768513397728762,10.961228802479495,2.0525352398318084
-1.8401980185594633,-0.9208070312347418,6.653667086381985,-1.4563259873745582,10.994767713115207,2.336620279658307
-1.8494060888718107,-0.8108593541035898,6.639103826508239,-1.4329597845779751,11.015281065178376,2.5854958816410414
-1.8575146824128466,-0.700706543451806,6.624774228662459,-1.4071048257615648,11.023525391216289,2.79929365377631
-1.8645217478473646,-0.5904712895396431,6.610703180404843,-1.3791118892238017,11.020306949775025,2.978220821259872
-1.870426460742761,-0.48026822004189285,6.596912061512605,-1.349329681011203,11.006469905170587,3.122548323727513
-1.87522914294318,-0.370203520990187,6.583418764702493,-1.3181041977739278,10.982886075717321,3.23259994372094
-1.878931178153082,-0.2603746602330138,6.570237722724754,-1.2857781983367185,10.950446202539583,3.3087423961566125
-1.881534924755412,-0.150870198207618,6.557379940741387,-1.2526907743751523,10.910052703622014,3.3513763028518415
-1.8830436267374882,-0.04176967117139785,6.5448530329976355,-1.2191770113466338,10.86261389098769,3.36092797453137
-1.8834613234492021,0.06685646773847906,6.53266126288417,-1.18556773160132,10.809039641107882,3.3378419216272914
-1.8827927587718174,0.17494686414955787,6.520805585568157,-1.152189312385047,10.750238518789729,3.282574011896682
-1.8810432901303218,0.2824492493374552,6.509283692444306,-1.1193635722660802,10.687116362399697,3.1955851855297897
-1.8782187976369473,0.38932041296145214,6.4980900567216455,-1.0874077204107824,10.620576343401904,3.0773356258379585
-1.8743255935073329,0.4955261763954712,6.487215979517538,-1.0566343641524027,10.55152051625694,2.92827926520198
-1.869370331743378,0.6010413815580407,6.476649635876014,-1.027351571500383,10.480852876476272,2.748858481574512
-1.8633599179277978,0.7058499103228034,6.46637612016101,-0.9998629866846378,10.409483946021473,2.5394988106121983
-1.8563014188245697,0.8099447497830181,6.456377490294164,-0.9744679985785158,10.338336907400604,2.3006034627805465
-1.8482019713267395,0.9133281188570241,6.446632810308379,-0.9514619639507104,10.268355311999732,2.032547393899055
-1.8390686901381692,1.0160116719770214,6.437118190668872,-0.9311364900117198,10.200512395760661,1.735670631902394
-1.828908573418399,1.1180167959346279,6.427806825768754,-0.9137797836926959,10.13582204775856,1.4102705122704298
-1.8177284054590528,1.2193750164122135,6.418669027931827,-0.8996770785699916,10.075351496166778,1.0565924195992373
-1.8055346552949307,1.3201285313738813,6.409672257146127,-0.8891111543739992,10.020235803308596,0.6748185728146455
-1.7923333699811919,1.4203308894069673,6.400781145602387,-0.8823629686458527,9.971694298987316,0.26505432587664535
-1.7781300610871222,1.5200478323968405,6.391957515915929,-0.8797124253870863,9.931049131298908,-0.17268861665638688
-1.762929582763154,1.6193583237098297,6.3831603916620585,-0.8814393115536502,9.89974617918427,-0.6385127507735955
-1.7467359995260556,1.7183557855016725,6.374345998546522,-0.8878244390613861,9.87937865386206,-1.132659864003009
-1.7295524416710388,1.817149572040293,6.365467754155908,-0.8991510377014161,9.871713820017309,-1.6555415442230887
-1.711380945950636,1.915866710240466,6.356476243778894,-0.9157064531436471,9.878723395307793,-2.207776105336158
-1.6922222788482313,2.014653944193544,6.3473191792474575,-0.9377842141970086,9.90261834125838,-2.7902330689658705
-1.672075739406296,2.1136801276061274,6.337941337105487,-0.9656865448866674,9.945888941955264,-3.4040865022993176
-1.6509389381302346,2.21313901702568,6.3282844716566204,-0.9997274099096606,10.01135127909597,-4.050878692996013
-1.6288075479599777,2.3132525298166398,6.318287197557524,-1.0402361968396208,10.102201448652034,-4.732595835734544
-1.6056750226618113,2.41427454430316,6.307884835589127,-1.0875621551969663,10.222079113261511,-5.451757592653813
-1.5815322772187796,2.516495335435775,6.297009214037158,-1.1420797311235045,10.375142217875142,-6.211522530696442
-1.556367323864422,2.6202467576145265,6.285588416725923,-1.2041949564304688,10.566154858689758,-7.01581145118389
-1.5301648562882768,2.725908306201424,6.273546467161618,-1.2743530709423077,10.800590281252079,-7.86945035637489
-1.5029057732262625,2.833914209013945,6.260802936452195,-1.3530475745060566,11.084750596631416,-8.778333959341431
-1.474566631136123,2.944761714980259,6.247272460707134,-1.4408309140994708,11.42590368658704,-9.74960871977209
-1.4451190139863204,3.0590207518461296,6.232864151566139,-1.5383270012971917,11.832435271532628,-10.79187044753108
-1.4145288064678592,3.177345104561456,6.2174808815531675,-1.6462457057725024,12.314009071180056,-11.91536388729169
-1.3827553554222447,3.3004851952732563,6.201018424495443,-1.7653993446454193,12.881718298190162,-13.132157390939629
-1.349750503469512,3.429302378255158,6.183364431048989,-1.8967209185548155,13.548193622444657,-14.456239451614854
-1.3154574796869605,3.5647843144796045,6.164397221863441,-2.0412833130709642,14.327599478671662,-15.903435964404936
-1.2798096365421645,3.708060309266321,6.143984388732731,-2.2003176727150136,15.235390130540218,-17.49096061471343
-1.2427290334495014,3.860414210571723,6.121981212005581,-2.375227278862148,16.287588021941165,-19.2362558944979
-1.204124891343784,4.023290090791135,6.098228939216959,-2.5675898378071267,17.499152992237196,-21.154507439191764
-1.1638919904358727,4.198281620713507,6.072553040838888,-2.7791349121990443,18.88067134177933,-23.25373481954378
-1.1219091742287375,4.387088334131301,6.044761691716897,-3.011672260394482,20.43201730758605,-25.525550305924213
-1.0780382908874244,4.591408507207161,6.014644969112952,-3.266927763453724,22.1307181935728,-27.928383852669782
-1.0321242058153528,4.812715689142889,5.981975691478415,-3.546211601980422,23.9114616485115,-30.358165787301257
-0.9839970489239239,5.0518303056280045,5.946513575458611,-3.8497932598534343,25.6319414610686,-32.599744204131476
-0.9334787458676439,5.30814972023869,5.908015642860077,-4.1757907018947495,27.02098267945184,-34.25344019472268
-0.880397248665257,5.578359547033209,5.866257735841129,-4.518325103841977,27.6134450213711,-34.64335496079142
-0.824613653194925,5.854493997246919,5.821074484802709,-4.864758653449891,26.705346782598077,-32.755090148574645
-0.7660687132224557,6.1215474650729,5.77242689826821,-5.192309554935637,23.425073285272497,-27.338857222646112
-0.7048532385717268,6.355798197925624,5.720503802718854,-5.465698127162098,17.08026668323384,-17.403931943038117
-0.6412952565924706,6.526600864757963,5.665846821447233,-5.63973744659248,7.8316175042380625,-3.1768514858993644
-0.576029247944891,6.604917039800344,5.6094494469813085,-5.671505961451473,-2.756040820689061,13.112878175618933
-0.5099800775468876,6.577356631593453,5.552734387366794,-5.540377179695284,-12.174824569230735,27.879587117291667
-0.444206511230953,6.4556083859011455,5.497330615569841,-5.261581308522367,-18.467305873390835,38.2955451295562
-0.37965042737194155,6.270935327167237,5.444714802484618,-4.8786258572268055,-21.256961266554494,43.76247028651208
-0.31694107410026917,6.058365714501692,5.395928543912349,-4.441001154361684,-21.382530015450133,45.4129811629393
-0.25635741695525227,5.844540414347191,5.351518532368733,-3.9868713427322913,-19.969218752129315,44.80577580344159
-0.19791201281178036,5.644848226825897,5.31164981894141,-3.538813584697875,-17.882663138210926,43.14995363805538
-0.1414635305435214,5.466021595443788,5.276261683094431,-3.1073140483173214,-15.639106495327278,41.17000804500725
-0.08680331458908352,5.309630530490515,5.245188542611258,-2.695613967867249,-13.499573596048945,39.232477922791425
-0.03370700928417837,5.174634794530025,5.2182324029325855,-2.3032891886393347,-11.576517557480683,37.49306720707349
0.01803933866112188,5.058869618955218,5.195199511046193,-1.9283585165686,-9.906175342400312,35.99737726090856
0.06862803485067406,4.959807865531215,5.175915925880506,-1.5683847439595144,-8.48945789326239,34.738325945231935
0.11822611350598622,4.874913286598591,5.160232078440911,-1.221001484507195,-7.312975163197876,33.68605943170951
0.16697524637197214,4.801783534966613,5.148022063595839,-0.8841408901901,-6.359129817018447,32.80268315271324
0.21499308172163828,4.738192236796428,5.139180654693938,-0.5561140586629676,-5.61058121693334,32.049170832827556
0.26237500408960257,4.682086424627095,5.133619514107308,-0.23562235033469203,-5.051923793028676,31.388416155536866
0.30919586833587354,4.631567186696809,5.131263290603961,0.07826181122067666,-4.670035552164278,30.786460680625574
0.35551154020284165,4.584866831175166,5.132045908716168,0.3861264180269324,-4.4538241803828145,30.212910273265795
0.4013602085145933,4.540328589371338,5.135907172896437,0.6882555207595904,-4.393729543722769,29.641028876415724
0.4467634944083067,4.49639129393411,5.142789728104033,0.9846658095237477,-4.481158529009861,29.047733865815008
0.4917274073476478,4.451579708644012,5.15263638619927,1.2751431481818978,-4.707938747685073,28.413584517674376
0.5362432044340879,4.404500321167161,5.165387817681089,1.5592789933586415,-5.06583432607394,27.722789443342783
0.5802882076457595,4.353841977906422,5.180980607614676,1.8365068877920694,-5.546145944250418,26.963227616759717
0.6238266274248238,4.298380518463918,5.199345676492596,2.1061391639596665,-6.139406545410058,26.12646450511411
0.6668104326094629,4.236986453009817,5.220407068132193,2.3674038090108076,-6.835177896957602,25.207741501786508
0.7091802971395611,4.168634674040241,5.244081106222301,2.6194812240286725,-7.621948747981274,24.205918937665484
0.7508666438799635,4.092415186560428,5.270275918462588,2.8615404134053275,-8.4871315998473,23.123357865842525
0.7917907957455678,4.007543870561955,5.298891322596641,3.0927739920637527,-9.417151776630892,21.965731954334622
0.8318662344511873,3.9133723527956463,5.329819062517279,3.312431311607099,-10.397619569425686,20.74176708729827
