th1 (rad),w1 (rad/s),th2 (rad),w2 (rad/s)
6.186229986786819,-0.6152197039149582,6.023017886861015,-2.7463522297684726
6.18007778974767,-0.6335007274715991,5.99555436456333,-2.7024893922680064
6.173742782472954,-0.6540872943419564,5.96852947064065,-2.6537152005710696
6.167201909529534,-0.6766402438260801,5.94199231863494,-2.600433708318964
6.160435507091273,-0.7008142091191678,5.91598798155175,-2.5430558583575955
6.153427365000081,-0.7262660817071761,5.8905574229681745,-2.4819898814177774
6.1461647041830085,-0.7526621322682193,5.865737524153997,-2.4176334260674395
6.138638082860326,-0.7796836725292073,5.841561189893323,-2.350367523888868
6.130841246135034,-0.8070312682721569,5.818057514654434,-2.280552336496175
6.122770933452313,-0.8344276068476515,5.795251991289472,-2.2085245177673123
6.114426657383836,-0.8616191820614075,5.773166746111799,-2.1345959559941865
6.105810465563222,-0.8883769888647229,5.751820786551857,-2.059053630898313
6.096926695674575,-0.9144964261877856,5.731230250242874,-1.982160320802504
6.087781731412697,-0.9397965955249422,5.711408647034848,-1.9041559161503792
6.078383765457448,-0.9641191620039984,5.692367087873345,-1.825259128382696
6.068742573837408,-0.9873269189356593,5.674114496589518,-1.745669421004631
6.058869304648051,-1.009302170114171,5.656657802379472,-1.6655690275653796
6.04877628294691,-1.0299450189598847,5.640002112103819,-1.5851249560800516
6.03847683275731,-1.0491716313920563,5.6241508625430185,-1.5044909094719472
6.02798511644339,-1.066912520711243,5.609105953448299,-1.4238090762819415
6.017315991236278,-1.0831108878193014,5.59486786268548,-1.3432117652619795
6.006484882358085,-1.0977210385425638,5.58143574503286,-1.2628228720304828
5.995507671972659,-1.1107068912116713,5.568807516312555,-1.1827591764021785
5.984400603060542,-1.1220405814919923,5.556979924548533,-1.1031314760492206
5.973180197245622,-1.131701167263596,5.545948609788041,-1.0240455665067116
5.961863185572986,-1.1396734336788634,5.535708154122974,-0.9456030798279224
5.950466451236197,-1.1459467970023176,5.526252123324694,-0.8679021949513173
5.939006983266174,-1.1505143051511775,5.517573101375181,-0.7910382324958599
5.927501840214663,-1.1533717327582527,5.5096627190502225,-0.7151041455993029
5.91596812288708,-1.15451676887583,5.50251167759423,-0.6401909168292559
5.9044229551983225,-1.1539482959776757,5.496109768425937,-0.5663878693429589
5.8928834722385455,-1.1516657595765234,5.4904458897325075,-0.4937828985179398
5.881366814642781,-1.147668628460617,5.485508060747328,-0.4224626283581192
5.869890128358175,-1.141955946185586,5.481283434463747,-0.35251249521122024
5.858470568896319,-1.134525974968326,5.477758309511635,-0.28401675981053737
5.8471253091466355,-1.1253759334553977,5.4749181419135295,-0.21705844746344738
5.835871549812081,-1.1145018299220346,5.472747557438895,-0.15171921542852201
5.8247265315128605,-1.1018983922456633,5.47123036528461,-0.08807914622262214
5.813707547590404,-1.0875590954421936,5.470349573822384,-0.02621646583839462
5.802831956635982,-1.0714762866157739,5.470087409164,0.03379281332436309
5.792117193769824,-1.0536414058287624,5.470425337297244,0.09187532357999287
5.781580779711537,-1.0340452996441203,5.4713440905330435,0.14796084386695757
5.771240326715096,-1.0126786219497654,5.472823698971713,0.20198286659605624
5.7611135404955975,-0.9895323141992394,5.474843527637674,0.2538792205341952
5.751218217353605,-0.9645981544888345,5.477382319843016,0.3035927374449476
5.741572235808717,-0.9378693620717129,5.480418247217465,0.35107194670240827
5.732193542188,-0.909341241156376,5.4839289666844895,0.39627177870644864
5.723100129776436,-0.8790118453533114,5.487891684471554,0.43915425493934646
5.714310011322903,-0.8468826421417261,5.492283227020948,0.47968914022055725
5.705841184901486,-0.8129591554506523,5.4970801184231535,0.517854531437806
5.6977115933469795,-0.7772515640863592,5.502258663737532,0.5536373570223042
5.689939077706116,-0.7397752344456248,5.507795037307755,0.5870337628876136
5.68254132536166,-0.7005511678168468,5.513665374936631,0.6180493635580913
5.675535813683491,-0.6596063455841783,5.519845868572212,0.6466993417406718
5.66893975022765,-0.6169739597102278,5.526312861989618,0.6730083854712462
5.662770010630547,-0.5726935207774355,5.533042945844331,0.6970104588868788
5.657043075422773,-0.5268108413274735,5.5400130504332,0.7187484102152017
5.651774967009498,-0.47937789790030605,5.547200534535352,0.7382734282314274
5.6469811880304945,-0.43045258065984626,5.554583268817666,0.755644365680125
5.642676662223896,-0.3800983444314596,5.562139712474467,0.7709269544857613
5.6388756787795815,-0.3283837790456723,5.569848982019325,0.7841929425517862
5.635591840989124,-0.2753821198396361,5.577690911444843,0.7955191852605741
5.632838019790728,-0.2211707208712462,5.5856461032974485,0.8049867262701105
5.630626312582015,-0.16583051381736158,5.59369597056015,0.8126799018474177
5.6289680074438415,-0.1094454747282548,5.601822769578624,0.818685500917824
5.627873552696559,-0.05210211895323921,5.610009624587803,0.8230920094965902
5.627352531507026,0.0061109581424473175,5.618240544682768,0.8259889635400708
5.6274136410884505,0.06510348032855537,5.626500434318169,0.8274664288821574
5.6280646758917365,0.12478381879291575,5.63477509860699,0.8276146211818214
5.629312514079666,0.18505924251461073,5.643051244818809,0.826523673037182
5.631163106504812,0.24583608726740003,5.6513164815491805,0.8242835498980068
5.633621467377486,0.3070198431148675,5.659559317048161,0.8209841113342219
5.636691665808635,0.36851516322294314,5.667769158161503,0.8167153097162487
5.640376817440864,0.43022579937774186,5.675936311258666,0.8115675144831476
5.644679075434642,0.4920544717565886,5.684051986403498,0.8056319469033916
5.649599620152207,0.5539026822915347,5.692108305872532,0.7990012075102769
5.655138646975122,0.6156704824443946,5.700098317947635,0.7917698761293254
5.661295351799566,0.6772562074483378,5.708016016708928,0.7840351625059131
5.66806791387405,0.7385561901316043,5.715856368333987,0.7758975838887701
5.675453475775366,0.7994644683826312,5.723615344172875,0.7674616444478642
5.683448120459192,0.8598725011834819,5.731289960617353,0.7588364900523705
5.692046845471027,0.9196689089458285,5.738878325517876,0.7501365106944352
5.7012435345604855,0.9787392546166356,5.746379690624821,0.7414818617526968
5.711030927106652,1.0369658826313215,5.753794509242348,0.7329988744329624
5.721400585932965,1.0942278331976782,5.761124497986677,0.7248203252420337
5.732342864264942,1.1504008494774427,5.768372701239097,0.7170855344350239
5.7438468727597165,1.2053574948478922,5.775543556583448,0.7099402642604357
5.755900447708195,1.2589673964059462,5.782642959226052,0.703536389774388
5.768490121672255,1.3110976290471361,5.7896783231237965,0.6980313182782701
5.781601097962727,1.3616132516475712,5.796658636306579,0.6935871383057387
5.795217230479203,1.4103780029694561,5.8035945076896365,0.6903694857425237
5.8093210105088975,1.4572551598329524,5.810498202547062,0.6885461232051622
5.823893562107227,1.5021085538740189,5.817383663779113,0.6882852391893282
5.838914647645968,1.5448037359829405,5.824266516171006,0.6897534854978709
5.854362685005797,1.5852092695741788,5.831164051025985,0.6931137846315765
5.8702147777015385,1.6231981256038266,5.8380951888723,0.6985229525044999
5.886446758957577,1.6586491442905096,5.8450804183973455,0.7061291951527473
5.903033250400482,1.6914485214751311,5.852141710348873,0.716069550002286
5.919947735615233,1.721491272185592,5.859302405848895,0.7284673516331317
5.937162648337089,1.748682620933734,5.866587079365226,0.7434298077490742
5.954649474546426,1.7729392681211313,5.874021377442717,0.7610457723332891
5.972378867227637,1.794190485015627,5.88163183516605,0.781383799149872
5.990320772077793,1.8123789961457355,5.889445673157549,0.8044905496719883
6.008444562039251,1.827461617383331,5.897490578654269,0.8303896155034634
6.026719178213084,1.839409629858725,5.905794474809303,0.8590807972350699
6.045113274511672,1.8482088833103059,5.914385282781654,0.8905398606965711
6.063595363344775,1.8538596364597664,5.92329068138862,0.9247187692927364
6.082133959709373,1.8563761554037357,5.932537869081547,0.9615463692363818
6.10069772126341,1.855786102769487,5.942153332773911,1.000929484636732
6.119255582291105,1.852129759630282,5.952162627620278,1.0427543629389755
6.137776879887408,1.8454591283279105,5.962590171249667,1.0868883991203593
6.156231471170687,1.835836967146297,5.973459055240871,1.1331820598374691
6.174589840842151,1.8233358072879302,5.984790875839245,1.1814709264149845
6.19282319891503,1.8080369991753862,5.996605585103395,1.2315777777679027
6.210903568906784,1.790029829293088,6.008921362881074,1.2833146403326094
6.228803867199715,1.769410741276905,6.0217545092844,1.3364847409277312
6.246497974612484,1.7462826864541752,6.035119356693677,1.3908843091911745
6.263960801477025,1.7207546201836004,6.049028199785589,1.446304187916841
6.281168347678861,1.6929411516805746,6.0634912416647575,1.5025312214569821
6.298097759195667,1.66296234693021,6.078516553879328,1.5593494037738376
6.314727382664969,1.6309436770222,6.0941100479170665,1.616540778343239
6.331036819435191,1.5970160978755692,6.110275455700499,1.6738860917674871
6.347006980413947,1.5613162418197206,6.127014316618174,1.7311652116577565
6.362620142832144,1.5239866967313123,6.144325968734752,1.7881573272455102
6.377860009799457,1.485176344209658,6.1622075420072076,1.8446409585103722
6.392711773241554,1.4450407244053307,6.180653951592311,1.9003938066322117
6.407162180485607,1.4037423914183698,6.199657889658633,1.955192485528844
6.421199604399791,1.3614512195347002,6.219209814513921,2.0088121812934747
6.434814116595138,1.3183446169494408,6.239297936326857,2.0610262935366954
6.447997562764633,1.2746076001428046,6.259908199262224,2.1116061198290543
6.460743638766061,1.2304326790007796,6.281024260460514,2.160320651272773
6.473047965556069,1.1860195005691154,6.302627466973242,2.2069365530876603
6.48490816056176,1.1415741986545176,6.324696832504118,2.251218408081921
6.496323902548306,1.0973083981877183,6.347209016584937,2.292929301831502
6.507296986530183,1.0534378283270123,6.370138309603252,2.33183182493823
6.517831364813453,1.0101805077457722,6.393456627852634,2.3676895584084354
6.527933169890911,0.9677544803553323,6.417133523436719,2.40026909161707
6.537610714694464,0.9263751005096683,6.441136214352889,2.429342597488879
6.546874465699561,0.8862518936216922,6.465429640327778,2.4546909561247388
6.555736984635779,0.8475850503936927,6.489976549889025,2.4761073768627253
6.564212835139716,0.8105616488111074,6.514737623657653,2.4934014217770453
6.572318451627827,0.7753517348339851,6.539671637875423,2.506403284483191
6.580071968976167,0.742104426473908,6.564735670720255,2.5149681318575126
6.587493013240906,0.7109442320946059,6.58988535203883,2.5189802789195643
6.594602455561852,0.6819677876474709,6.615075154828025,2.5183569449173175
6.601422133438327,0.6552412151759289,6.640258724277198,2.513051337012378
6.6079745455900865,0.6307982839004136,6.6653892376473225,2.5030548302912665
6.614282528429091,0.6086395154575245,6.690419785950235,2.4883980595206276
6.6203689235836665,0.5887323190626367,6.715303766545441,2.469150805940391
6.626256246774293,0.5710121757467503,6.739995274604845,2.44542064482809
6.631966368531761,0.5553848205573644,6.764449481053126,2.417350407381846
6.637520216737334,0.5417293056614229,6.788622985126945,2.385114593392212
6.642937509793948,0.5299017730276516,6.812474131060867,2.348914939631798
6.648236527524225,0.5197397283644971,6.835963280457185,2.3089753956457804
6.65343392480787,0.5110665911588588,6.859053034413643,2.265536779881486
6.658544590719458,0.503696298979962,6.881708402212458,2.218851384861887
6.663581553709258,0.4974377650444014,6.903896916061076,2.1691777737904894
6.668555931359702,0.4920990218859965,6.925588693798981,2.11677596837458
6.673476921578562,0.4874909254573143,6.946756453482727,2.0619031756895767
6.678351830833135,0.48343033779466316,6.967375485239622,2.004810147377715
6.683186134211081,0.4797427479973038,6.987423586713399,1.9457382130999124
6.687983561691055,0.4762643274375095,7.006880968844398,1.8849169860293502
6.69274620496543,0.4728434439314966,7.0257301387046915,1.8225627035980625
6.697474639404745,0.46934168041227725,7.043955765740672,1.7588771423820908
6.702168056208867,0.46563441678498424,7.061544537164493,1.6940470313871492
6.706824400376717,0.46161104009782084,7.078485007478364,1.6282438817106413
6.711440510777695,0.4571748492535412,7.094767446295471,1.5616241508356596
6.716012259270231,0.45224271763055107,7.110383687803828,1.4943296648073225
6.720534686446537,0.44674457150153446,7.125326984451901,1.426488229547104
6.725002132161552,0.4406227351574328,7.139591866747372,1.3582143721474216
6.729408359513126,0.4338311860523846,7.153174010468846,1.28961016305204
6.73374667137365,0.4263347557271176,7.166070112099367,1.2207660797821671
6.738010018930921,0.41810830517569164,7.1782777728971885,1.1517618818078625
6.7421911019826775,0.40913589694853764,7.1897953917152675,1.0826674740102082
6.7462824609521626,0.39940998075388456,7.200622066455369,1.0135437428218423
6.750276560759701,0.3889306046544676,7.210757503883587,0.944443354580253
6.754165866806246,0.37770466011830656,7.2202019374293895,0.8754115099630083
6.757942913407429,0.3657451660954398,7.2289560525290195,0.8064866517220711
6.761600365068383,0.3530705948625938,7.23702091904624,0.7377011254384069
6.765131071017009,0.3397042405055415,7.244397930300624,0.6690817948225716
6.7685281134220645,0.32567362949839473,7.25108874824885,0.6006506143273854
6.771784849717048,0.3110099718026563,7.257095254392124,0.5324251626363403
6.774894949435074,0.2957476501696344,7.262419506018487,0.4644191410504051
6.7778524259367705,0.27992374482241006,7.267063697428991,0.3966428410036468
6.780651663384995,0.26357759036371564,7.271030125839028,0.32910358496569225
6.783287439288632,0.2467503615598418,7.274321161688684,0.2618061448931174
6.78575494290423,0.22948468455309987,7.2769392231376155,0.1947531422163974
6.788049789749761,0.21182427002922768,7.27888675455978,0.12794543312748036
6.790168032450053,0.19381356489078466,7.280166208891055,0.06138248268991654
6.792106168098961,0.17549741904781033,7.280780033717954,-0.004937268953865717
6.7938611422894395,0.1569207640221021,7.280730661028415,-0.07101604524364451
6.795430349929661,0.13812830016441385,7.280020500575978,-0.13685637392253858
6.796811632931305,0.11916418940084823,7.278651936836753,-0.20246072721941658
6.798003274825313,0.1000717505545631,7.276627329564559,-0.2678311590872805
6.799003992330859,0.08089315443288325,7.2739490179736865,-0.33296893727318894
6.799812923875188,0.061669116031445634,7.270619328600954,-0.3978741681696354
6.800429615035503,0.0424385813916691,7.266640586919258,-0.4625454125737054
6.800854000849419,0.023238406863278875,7.262015132793521,-0.5269792906698986
6.801086384918052,0.004103028779626476,7.256745339886822,-0.5911700747688896
6.8011274152058485,-0.014935878137882434,7.250833639139134,-0.6551092685941221
6.800978056424469,-0.0338497549545408,7.244282546453192,-0.7187851722302605
6.8006395588749236,-0.05261352612579377,7.23709469473089,-0.7821824322544392
6.8001134236136656,-0.07120598081803753,7.229272870408345,-0.8452815770881908
6.799401363805485,-0.08961016755172674,7.220820054637463,-0.9080585382629638
6.798505262129968,-0.10781380094314061,7.211739469254834,-0.9704841591155702
6.797427124120537,-0.12580967832487563,7.202034627663678,-1.0325236934534363
6.796169027337288,-0.1435961028391963,7.191709390729144,-1.0941362979846185
6.794733066308896,-0.16117730820348442,7.180768027749298,-1.1552745238231525
6.793121293226862,-0.17856387872927154,7.169215282511066,-1.2158838141794865
6.791335654439569,-0.19577315633080405,7.157056444369272,-1.2759020174412325
6.789377922876262,-0.212829624194442,7.14429742419486,-1.3352589272378117
6.787249626634317,-0.22976525452425764,7.130944834922482,-1.3938758637369777
6.784951974089075,-0.24661980538544917,7.117006076285112,-1.4516653132832351
6.78248577603522,-0.26344104922174943,7.10248942315228,-1.5085306464584127
6.779851365543003,-0.28028491325162574,7.087404116687695,-1.5643659375736612
6.777048516410487,-0.29721550982200073,7.071760457311958,-1.6190559112822622
6.774076361312266,-0.3143050331376492,7.055569898199136,-1.6724760441632496
6.77093331098089,-0.33163349785754487,7.038845137757503,-1.7244928504338026
6.767616976002315,-0.3492882951649989,7.021600209253165,-1.7749643810170188
6.764124093050665,-0.36736354340944366,7.0038505654429954,-1.8237409636011557
6.76045045761657,-0.3859592136142765,6.985613155806984,-1.870666207658131
6.756590865480427,-0.4051800153353785,6.966906493730403,-1.9155782922755358
6.752539065327073,-0.42513403573458636,6.9477507108076475,-1.9583115458459421
6.748287724969727,-0.4459311343467215,6.928167595349188,-1.998698315088911
6.74382841362626,-0.4676811077026877,6.908180612198299,-2.0365711067614582
6.739151602549233,-0.4904916512980458,6.887814901130684,-2.071764969281669
6.734246686036252,-0.5144661606484598,6.867097251437868,-2.104120064258399
6.729102024429768,-0.5397014273465709,6.846056050795284,-2.133484360860799
6.723705010156302,-0.566285298891423,6.824721207186676,-2.159716370640959
6.718042157167388,-0.5942943812349759,6.803124043480267,-2.182687828562128
6.712099213355038,-0.6237918691391758,6.781297165194646,-2.202286219257771
6.705861294663646,-0.6548255904327397,6.759274303002068,-2.2184170473370477
6.6993130387593185,-0.6874263453754694,6.737090132528698,-2.2310057577063436
6.692438775305564,-0.7216066114223543,6.714780074951634,-2.2399992264981656
6.68522270919134,-0.7573596672329409,6.692380082686653,-2.2453667645372883
6.677649112519011,-0.7946591689537463,6.66992641504128,-2.247100601739674
6.669702520829473,-0.8334591883201106,6.647455409023883,-2.245215850160181
6.661367928946272,-0.8736946980267819,6.625003250522282,-2.2397499729062504
6.652630981966005,-0.9152824672241555,6.602605750793219,-2.230761813097601
6.643478157293763,-0.9581223108210385,6.580298132662243,-2.218330259080702
6.633896934185553,-1.0020986219757393,6.558114830071436,-2.202552637439004
6.623875947965796,-1.0470821085847277,6.536089303697046,-2.183542933042406
6.6134051268799485,-1.0929316519159218,6.514253874366622,-2.161429935402409
6.602475810360789,-1.1394962083506337,6.492639575012598,-2.1363554036907546
6.591080848277283,-1.1866166825826512,6.47127602097569,-2.108472330291459
6.5792146814514565,-1.2341277113663194,6.4501912976727755,-2.077943366392449
6.566873404337794,-1.2818593096964364,6.429411864008851,-2.0449394546771993
6.554054811240829,-1.329638344898058,6.408962469462079,-2.009638695308168
6.5407584277918485,-1.3772898174547283,6.388866082508997,-1.9722254534673564
6.526985529617301,-1.4246379397255553,6.369143827974324,-1.9328897007202115
6.512739150220045,-1.471507014496392,6.3498149309671215,-1.891826568987651
6.498024080075081,-1.5177221243426922,6.330896665277245,-1.8492360851816303
6.482846858831654,-1.5631096500292359,6.312404304425429,-1.8053230465353385
6.467215762331362,-1.6074976417626752,6.294351073960075,-1.760296991101044
6.4511407859137355,-1.6507160712591182,6.276748104049065,-1.7143722144568985
6.434633625201144,-1.6925969955286266,6.259604381904496,-1.667767781997349
6.417707655245858,-1.7329746652267208,6.242926704084523,-1.6207074859614408
6.40037790859359,-1.7716856115371886,6.226719629224909,-1.573419697348155
6.382661052478219,-1.8085687459083928,6.2109854322514275,-1.5261370649616828
6.364575365019135,-1.8434655065557053,6.195724061601811,-1.4790960170300316
6.346140709953578,-1.8762200843681327,6.180933101431511,-1.432536025273067
6.327378509109897,-1.9066797585477522,6.1666077411787805,-1.3866985971817005
6.30831171152442,-1.934695368749048,6.152740755206963,-1.3418259698867852
6.288964757836929,-1.9601219454430892,6.139322495508096,-1.2981594886276169
6.269363538382498,-1.9828195135148203,6.12634090062182,-1.2559376646973963
6.2495353432473495,-2.0026540756051694,6.113781523974846,-1.2153939219295824
