th1 (rad),w1 (rad/s),th2 (rad),w2 (rad/s)
6.272641458966951,-1.5137427196864512,4.920750239817146,1.3133944812566953
6.257504031770086,-1.53445645213417,4.933884184629712,1.436140416700537
6.242159467248745,-1.557105628244433,4.948245588796718,1.5601177420997685
6.226588410966301,-1.5819314801502486,4.963846766217716,1.6855132293075559
6.210769096164798,-1.609181736575155,4.980701898510792,1.8125406495591538
6.1946772787990465,-1.6391110561039484,4.998827305006383,1.941441782258466
6.178286168238007,-1.6719811504312005,5.018241722828968,2.072487004985998
6.161566356733695,-1.7080603670899877,5.038966592878828,2.2059751837504584
6.144485753062795,-1.747622390885703,5.061026344716333,2.3422324353338198
6.127009529153938,-1.7909435630613968,5.084448669069671,2.4816091179718454
6.109100093523324,-1.8382980857861355,5.109264760249389,2.624474092938597
6.0907171126654625,-1.8899500480847042,5.135509501178775,2.7712048475644417
6.071817612184615,-1.946140740905807,5.163221549654419,2.9221714277364255
6.052356204775557,-2.007069080873172,5.192443263931783,3.077711233857982
6.032285513966825,-2.0728620952984578,5.223220376270363,3.238090531028904
6.011556893013841,-2.1435313260614612,5.255601281580652,3.4034469933278606
5.990121579753227,-2.218909768163504,5.28963575151393,3.5737058468365634
5.967932482071592,-2.2985628668809874,5.325372809982295,3.7484605940952176
5.944946853402782,-2.38166690078207,5.362857415923248,3.926808908916509
5.921130184394961,-2.4668503458635413,5.402125505012413,4.107137240297515
5.8964616809363255,-2.552001401942234,5.443196877415388,4.286857898718476
5.870941666916903,-2.6340620650491884,5.486065456402573,4.462125885018865
5.844601046266411,-2.7088604197737283,5.530686715252761,4.627605711969907
5.817512442068674,-2.771077903238328,5.57696277237246,4.776420655501755
5.7898016630362905,-2.8144913909531777,5.624726978927478,4.900476539430803
5.761656749126759,-2.832627465158692,5.673731744321786,4.991348955477819
5.7333304744751725,-2.819853628078263,5.723645233876564,5.041767393495229
5.7051319381943895,-2.7726832019147243,5.774062907811516,5.047387350496844
5.677405106175242,-2.690801638089791,5.824536781316485,5.008171470093395
5.650497089794344,-2.5772874793048888,5.874618496017418,4.928657408090749
5.6247242150012955,-2.437856364269229,5.923905070098326,4.816885615680649
5.600345651358603,-2.279483304365472,5.972073926255132,4.682487940323287
5.577550818314949,-2.1090232424707827,6.018898805658365,4.534796190635379
5.556460585890241,-1.9322868214774205,6.064246767564719,4.381594931765488
5.537137717675466,-1.7536736024504502,6.108062716882374,4.228648501589492
5.519600981650962,-1.5762151826980237,6.150349201898269,4.0797895258891135
5.503838829823982,-1.4018208411894655,6.1911470971571605,3.9372786536655147
5.489820621412087,-1.231571250164073,6.230519883693816,3.80222236075808
5.477504908910446,-1.0659801923767014,6.268542107301397,3.6749402922850862
5.466845106986679,-0.9051975942042514,6.305291510224248,3.555247584730496
5.457793131044637,-0.7491547002683889,6.340843986071553,3.44265515327004
5.450301584041953,-0.5976623740019179,6.375270537604253,3.3365043651858817
5.444324960301934,-0.45047495036673035,6.408635581256112,3.236054019546749
5.439820210798267,-0.30733016657248236,6.44099612145158,3.1405345896280865
5.436746909132542,-0.16797306622479166,6.4724014673478605,3.0491808407423426
5.435067178470294,-0.032169426818059704,6.502893275755284,2.9612505742101627
5.4347454842021135,0.10028753632159307,6.5325057814973855,2.8760346988161705
5.43574835956533,0.22957471365229581,6.561266128485547,2.7928620309063006
5.438044106701852,0.3558392865128748,6.58919474879461,2.711101003387861
5.441602499566981,0.4792005247921249,6.616305758828489,2.6301596557248406
5.4463945048149025,0.5997525445198343,6.642607355385737,2.549484750099513
5.452392030260101,0.7175676147838439,6.668102202886732,2.468560518730311
5.459567706407939,0.8326997572845583,6.692787808074034,2.3869073292412715
5.467894703980785,0.9451884784954288,6.716656881366447,2.304080415986054
5.477346588765739,1.055062534204688,6.739697685526307,2.2196687372566073
5.487897214107786,1.162343662523017,6.761894372898873,2.1332939632083696
5.499520650733016,1.267050242960785,6.783227312530957,2.0446095654750294
5.512191153162624,1.3692008515794996,6.803673408185707,1.9532999594063478
5.525883161678419,1.4688176892027784,6.823206407779771,1.8590796389313862
5.540571338570447,1.5659298636427712,6.841797204169085,1.761692239246336
5.556230637206875,1.660576509423198,6.859414126561548,1.6609094619697635
5.572836402301107,1.7528097305605657,6.876023221181246,1.5565297999111865
5.590364499606713,1.8426973542138645,6.891588519180358,1.448377003410808
5.608791473148851,1.9303254857644168,6.906072289214466,1.336298236855117
5.628094728006495,2.015800859259352,6.9194352715830165,1.2201618821649107
5.648252736599089,2.099252981075776,6.931636890404666,1.0998549556388073
5.669245266409846,2.180836068887729,6.9426354399610535,0.9752801155015713
5.691053627098723,2.2607307920937765,6.952388241116069,0.8463522500073254
5.713660935019661,2.339145823093684,6.960851763616143,0.71299465038454
5.737052393250598,2.4163192101683992,6.967981710119988,0.5751347900630996
5.761215585352281,2.4925195807471177,6.973733058020619,0.4326997528605938
5.7861407811597525,2.5680471764150625,6.978060055549225,0.28561138039384976
5.811821252923903,2.6432347050384415,6.980916169353163,0.13378124656682144
5.838253599974288,2.7184479663290486,6.982253981818832,-0.022894379704146844
5.8654380796375785,2.794086158336574,6.98202503802179,-0.18453934446225406
5.893378941220944,2.870581693761874,6.980179644577167,-0.3513018362365692
5.9220847581585625,2.9483992317337293,6.976666626214802,-0.5233575011411782
5.9515687504759,3.028033440596554,6.97143305120339,-0.7009106510557024
5.9818490848818655,3.1100047175181884,6.964423944692833,-0.8841923703902159
6.012949132057047,3.1948516536187634,6.955582020988931,-1.0734537247497318
6.044897648593235,3.283118381330801,6.944847483741434,-1.2689513762543583
6.077728832406543,3.3753339830272857,6.93215796997889,-1.470921589007451
6.1114821722368164,3.4719797658023808,6.917448754088816,-1.679536710773902
6.1462019698948405,3.5734383093572952,6.900653386981077,-1.8948355962849348
6.181936352988413,3.679915742136266,6.881705031018227,-2.116616057339111
6.2187355104097755,3.791325927403422,6.860538870444836,-2.3442736201603362
6.256648769683809,3.907123046653675,6.837096134243233,-2.5765679193108713
6.295720000150346,4.026069803311863,6.811330455050125,-2.8112992779584065
6.335980698183464,4.145937173564222,6.783217462270541,-3.0448905099191657
6.377440069919106,4.263157266340874,6.752768557171349,-3.2719053228051913
6.420071642582514,4.37250534065501,6.720049503943296,-3.4846116022986617
6.463796695989065,4.466976303416906,6.68520338792031,-3.6728234853521067
6.508466459023234,4.538119804079419,6.648475153066789,-3.8243945697263406
6.553847657064028,4.577112500698692,6.610231207369526,-3.9267533009041964
6.5996187820710155,4.576618476480058,6.570963674360484,-3.9695483322346656
6.645384966835816,4.5329531099428495,6.531268191038137,-3.9477143957276577
6.690714497935244,4.4475274852485365,6.49179104708086,-3.86351043653113
6.735189772787729,4.326644741153263,6.453155942715549,-3.726217864823734
6.778456220199262,4.179661507616285,6.415893764067311,-3.549519597085562
6.820252835275425,4.016535772797635,6.380398568096456,-3.348006234036875
6.860418193003401,3.8459160805953916,6.346918505756087,-3.1344454292806114
6.898877353809355,3.6742651368973376,6.315574051463281,-2.9185158476330537
6.935620005178328,3.5058376696176325,6.286388892986951,-2.7067546949381893
6.970678381874505,3.343092691606921,6.259321346037569,-2.503126727295405
7.004109308790574,3.187206769705169,6.234290078764615,-2.3097426958418255
7.035981376487626,3.038520894804117,6.211192651806197,-2.127488756425326
7.0663665854356665,2.8968724106150034,6.189917764241944,-1.9564963342503685
7.095335309541817,2.7618200738356093,6.17035280089944,-1.7964623928616408
7.122953510280173,2.6327876648954724,6.152388176970824,-1.6468550906755275
7.149281386929127,2.5091513626421564,6.1359196260640685,-1.5070399316767826
7.174372900555548,2.390290476222788,6.120849226747301,-1.3763538516902338
7.198275805317776,2.275615198930787,6.1070856882303985,-1.2541464687678006
7.221031957307083,2.1645803713874874,6.09454422354272,-1.1398012052876287
7.242677761020958,2.0566909591566214,6.083146211489844,-1.0327443932894877
7.263244670612524,1.9515027810269092,6.0728187675569485,-0.9324474252915863
7.282759698422793,1.8486206394473916,6.063494293304033,-0.8384250574049215
7.301245904817267,1.7476951390171513,6.055110042729984,-0.7502317427971457
7.3187228562074385,1.6484189456158787,6.047607725302012,-0.6674571113565562
7.335207045663597,1.5505229139288734,6.040933154188447,-0.5897212429814169
7.350712274802886,1.4537723155166058,6.035035941758633,-0.516670096361589
7.365249997958052,1.357963283420075,6.0298692407950165,-0.44797128259008323
7.378829630792253,1.2629195216424656,6.025389527969116,-0.3833102699371935
7.3914588260086775,1.1684892896010037,6.021556425269744,-0.3223870457017244
7.403143718904688,1.0745426510494365,6.018332554812727,-0.26491322659932365
7.413889145415182,0.9809689668257455,6.015683422546734,-0.2106095904205481
7.42369883508344,0.8876746066796424,6.013577326642528,-0.15920399239841368
7.432575581150236,0.7945808547057374,6.011985286718544,-0.11042962600650925
7.4405213896972935,0.7016219839408596,6.010880990458479,-0.06402358740272301
7.4475376095367025,0.6087434775225903,6.010240754584451,-0.0197257040011155
7.453625044311928,0.515900375897557,6.01004349754444,0.022722410177028453
7.458784048070903,0.4230557316050082,6.010270721646211,0.06357810717801064
7.463014605386953,0.33017915498482986,6.010906502717991,0.10309829801623749
7.466316396936802,0.2372454356990149,6.011937485698153,0.14153991551998146
7.468688851293792,0.14423322619199513,6.0133528848533535,0.17916027459573738
7.470131183555712,0.05112377415610897,6.0151444875993105,0.21621735543585757
7.470642421297273,-0.042100308265092826,6.017306661153669,0.252970033579191
7.4702214182146225,-0.13545625038547224,6.019836361489461,0.2896782794731477
7.468866855710767,-0.22896231565315545,6.022733144284192,0.3266033492878269
7.466577232554235,-0.3226389927611085,6.025999177777071,0.36400798820149444
7.463350842626625,-0.4165101970519817,6.029639257659086,0.4021566672088173
7.459185740656105,-0.5106044944461219,6.033660824331173,0.44131587468957006
7.454079695711644,-0.6049563606536035,6.038073983078069,0.48175448449842745
7.448030132105108,-0.6996074891168153,6.042891527923054,0.5237442231663477
7.44103405721394,-0.7946081619547357,6.048128970154718,0.567560259893083
7.433087975594393,-0.8900186991160937,6.0538045727536485,0.6134819442825767
7.424187788603232,-0.9859110019443661,6.059939392196474,0.6617937181087761
7.4143286785837885,-1.082370208318817,6.066557329377562,0.7127862286110604
7.4035049765006,-1.1794964772981558,6.073685191663673,0.7667576716125141
7.391710011727619,-1.2774069214795947,6.081352768379798,0.8240153926722089
7.378935942512823,-1.3762377046398808,6.08959292230652,0.884877772809483
7.365173565466424,-1.4761463199091065,6.0984417000346145,0.9496764209597178
7.350412102267334,-1.5773140585664451,6.107938464244212,1.0187586865023652
7.334638961681669,-1.6799486696784565,6.118126051109235,1.0924904892423877
7.3178394749848845,-1.7842871932978452,6.1290509560016595,1.1712594369233473
7.299996603051906,-1.890598920216279,6.140763550370893,1.255478155165649
7.281090613849743,-1.9991883821506076,6.1533183319225495,1.345587681488276
7.2610987300282375,-2.110398196563377,6.166774208737432,1.4420606579880766
7.239994748062604,-2.2246114627104694,6.181194815317313,1.5454038718231704
7.217748633435499,-2.342253203108744,6.196648854035544,1.656159401054884
7.194326101404411,-2.4637900261868486,6.213210448046093,1.7749031676695914
7.1696882011425425,-2.589726688916111,6.230959479722789,1.9022389919661233
7.143790934253381,-2.7205974699755817,6.2499818696424505,2.0387851529186665
7.1165849595536255,-2.8569490918619245,6.270369721171638,2.1851488019342726
7.088015468635006,-2.99931017695358,6.292221209190981,2.3418811048564288
7.05802236686547,-3.148139681516887,6.315640020239545,2.5094024120414398
7.026540970050301,-3.303743263252949,6.34073404435996,2.687881859925466
6.993503537417772,-3.466142212713312,6.367612862959215,2.8770497553293453
6.958842115290639,-3.634875344292571,6.396383360512508,3.075915208172429
6.922493361847713,-3.8087129996361573,6.427142512594232,3.2823598697546834
6.884406231851352,-3.985270980677355,6.459966111291779,3.492591077320834
6.844553522044579,-4.160544234165381,6.494892022064987,3.700483164541659
6.802948079702925,-4.328455169992872,6.531896853710404,3.896941977229445
6.759663528002997,-4.4806428919424794,6.570866273482698,4.0696134182509915
6.714857099083572,-4.606872874097393,6.611562407665208,4.20347337954526
6.668788370342598,-4.696473215120802,6.653597141460661,4.282873979542097
6.6218236381913895,-4.740846870618352,6.696425881256082,4.295117156486804
6.574415169485206,-4.7362836566954645,6.73937705282095,4.234460095956736
6.5270523329182515,-4.685560974256719,6.781721653780517,4.104416531028671
6.480196723175684,-4.597184094874923,6.822765819090804,3.9167234102086597
6.434224882226935,-4.482650918987449,6.861933053192891,3.6875040040934626
6.38939837303706,-4.353368831684937,6.898808093233825,3.4329162924745678
6.34586468472021,-4.218627488074302,6.93313725615857,3.166270118727539
6.303678409839467,-4.084941871026221,6.9647999573458454,2.897067481192243
6.262828991129204,-3.95631290526618,6.9937706321577675,2.6313383766371397
6.223265862076542,-3.8348424429347308,7.020084015924139,2.3724838494464553
6.1849174376471945,-3.721351209043046,7.043808854418604,2.122131675578111
6.147703925556764,-3.6158636720016792,7.065030171174385,1.8808112341918182
6.111545288836747,-3.517944170691951,7.083838283516303,1.6484232015551907
6.076365847129828,-3.4269131965640893,7.100322515531855,1.4245428455245557
6.0420967151641864,-3.3419795483080477,7.1145679439871,1.2086058657245304
6.008676919681106,-3.2623176786476438,7.1266540026443455,1.0000171989473765
5.97605374289463,-3.187110962955348,7.1366541746338195,0.7982114592760209
5.9441826332650765,-3.1155744937869323,7.14463628922658,0.6026838759155106
5.913026888327207,-3.0469659564850593,7.150663127985735,0.4130036267177004
5.882557228762356,-2.980589819760476,7.1547931642529115,0.2288168810979865
5.852751330564751,-2.915797975589125,7.157081333063891,0.04984397108488209
5.82359335080886,-2.85198866509508,7.1575797727747394,-0.12412667430774393
5.795073464157909,-2.7886047357610804,7.156338506031662,-0.2932462770020365
5.767187416800298,-2.7251317970496065,7.153406043261642,-0.45761423199380036
5.739936098829802,-2.661096554713538,7.148829900941704,-0.6172868769710931
5.713325133282667,-2.5960654338016806,7.142657032171993,-0.7722862040941525
5.68736447894465,-2.529643500997603,7.134934170131052,-0.9226083345245029
5.662068043934673,-2.4614736408574096,7.1257080867858065,-1.0682316460000076
5.6374533075260995,-2.391235911056112,7.115025770325806,-1.2091244811817663
5.6135409484155385,-2.318646988823759,7.102934525513988,-1.3452523841496011
5.590354478527301,-2.243459618207191,7.089482001672492,-1.4765848230209362
5.567919882345229,-2.1654619718370127,7.074716153442282,-1.603101363378372
5.546265262626859,-2.084476849111273,7.058685139808499,-1.7247972629730872
5.525420494135746,-2.0003606435499632,7.041437167178768,-1.84168846461108
5.505416887700246,-1.9130020244373347,7.023020282532657,-1.95381597196215
5.486286867455873,-1.8223202909520642,7.003482122813035,-2.0612496024693847
5.468063664546352,-1.7282633701655323,6.982869626788341,-2.1640911224786277
5.450781030844697,-1.6308054430557264,6.961228715563555,-2.262476781873233
5.434472976414139,-1.5299441946058852,6.938603947744823,-2.356579278516356
5.41917353446808,-1.4256976947599835,6.915038154959659,-2.44660919625771
5.4049165575204805,-1.3181009261722239,6.890572062997082,-2.532815973731551
5.391735548258758,-1.207201982052186,6.865243903259766,-2.615488474242072
5.379663528438236,-1.0930579627764632,6.839089018517345,-2.694955239298143
5.368732948810472,-0.975730603204731,6.812139466124364,-2.7715845194254904
5.358975642778424,-0.8552816638149245,6.784423620930109,-2.845784185344537
5.350422826140275,-0.7317681180325786,6.755965779076664,-2.918001630002503
5.343105144959949,-0.6052371658733713,6.72678576277664,-2.988723776719793
5.337052773301216,-0.47572110096529263,6.696898525009441,-3.058477310050818
5.332295562291563,-0.3432320553503905,6.666313751908933,-3.127829242635374
5.328863241738059,-0.20775664605525315,6.635035459482579,-3.197387921342624
5.326785675277507,-0.069250552176775,6.603061580269153,-3.2678045561257782
5.326093169755739,0.07236693431729938,6.570383534707895,-3.339775319844604
5.326816839098912,0.21721830966238614,6.53698578150945,-3.414044008069993
5.328989022195536,0.36547307778927296,6.50284534142875,-3.491405150200423
5.3326437529734285,0.517352550446286,6.467931289926746,-3.572707303819459
5.337817278477892,0.6731338129797945,6.432204216888551,-3.658856005617112
5.34454861660769,0.8331521472597903,6.39561565683238,-3.7508154344259657
5.3528801380802875,0.997800725031657,6.35810750248812,-3.849607169986097
5.362858145330604,1.1675256161299505,6.319611430788259,-3.956303356570868
5.374533401491903,1.3428129357071579,6.280048397222551,-4.072009877175602
5.387961530848975,1.5241630486224524,6.239328298450794,-4.197832479823602
5.4032031613352,1.7120438414232761,6.197349973652559,-4.334814721810256
5.420323599749433,1.90681080376194,6.154001826434456,-4.4838305903300615
5.439391707787053,2.108575808242163,6.109163520531156,-4.645406373706865
5.460477465869475,2.3169994880354925,6.062709456794087,-4.819436365601792
5.48364746074983,2.5309764231721386,6.014515093138069,-5.0047486063026785
5.508957224981551,2.748185143764714,5.964467607075043,-5.198480031426123
5.536439076419199,2.9645026759370463,5.9124828067607815,-5.395257991529737
5.566084103178569,3.1733653553219416,5.858530226845484,-5.586298240323471
5.597817756731788,3.3653269589621244,5.802667244442249,-5.758764865567924
5.631471026321409,3.528307655207809,5.74507959578657,-5.89607666994843
5.666754102873488,3.6491674039161643,5.686118829087086,-5.980043958150234
5.703245776912649,3.716870385596222,5.626318389505584,-5.9952153209024655
5.740414480768611,3.726343417629786,5.566366236296559,-5.934200604626999
5.777677914944909,3.6808667459218056,5.5070242302502885,-5.800980122154601
5.814486582404127,3.5911618576693645,5.449014429028742,-5.60966319547883
5.850398200980821,3.471655000051216,5.392917797073954,-5.379366017677581
5.885114750981333,3.3363445925568613,5.339124136897178,-5.1285662156156455
5.918478196906902,3.1962790640324057,5.287838474741021,-4.871689182376544
5.950440987547226,3.058938327882688,5.239121582917256,-4.618307990838828
5.981030370826053,2.928755162591079,5.192938503008867,-4.373891238851683
6.010317922451964,2.807982496703148,5.14919959062035,-4.141005796544228
6.038397747418996,2.6974786225455136,5.107789532654908,-3.9203926807606084
6.065372533644451,2.597281544727306,5.068585605847302,-3.711746327257932
6.091345349091724,2.5069847894513604,5.031468142574722,-3.5142192224987387
6.116415196986238,2.425966802085109,4.996325950349735,-3.3267261624448583
6.140674865007089,2.3535238251501003,4.963058688725286,-3.1481177357861867
6.16421010325859,2.2889429842070093,4.931577511367424,-2.9772736878398858
6.1870995331006595,2.2315397744104835,4.901804774489025,-2.8131492225881454
6.209414930844765,2.1806749909133107,4.873673282263144,-2.654794604899818
6.231221680753897,2.1357601501875734,4.8471253362141455,-2.5013601777927588
6.252579282255773,2.0962567262057394,4.822111734436218,-2.352093829335756
6.273541849517831,2.0616722811769392,4.798590796142861,-2.2063349059892765
