th1 (rad),w1 (rad/s),th2 (rad),w2 (rad/s),a1 (rad/s^2),a2 (rad/s^2)
3.2949977066422615,1.205077763116819,3.0806612549541774,-2.118173090023671,2.221438796225826,-2.458481268447541
3.30704848427343,1.2272921510790773,3.0594795240539407,-2.142757902708146,2.381487460201136,-2.7435807563935786
3.3193214057842204,1.2511070256810886,3.0380519450268593,-2.170193710272082,2.51942550068288,-2.99882844346357
3.3318324760410314,1.2763012806879173,3.0163500079241383,-2.2001819947067176,2.633973410157791,-3.2227289326139816
3.3445954888479106,1.3026410147894951,2.9943481879770713,-2.2324092840328573,2.7243766446457456,-3.4145127200523246
3.3576218989958053,1.3298847812359527,2.9720240951367427,-2.2665544112333804,2.7904229012087227,-3.5741610991963317
3.370920746808165,1.3577890102480399,2.949358551024409,-2.302296022225344,2.832436919180918,-3.702399815624169
3.3844986369106453,1.386113379439849,2.9263355908021556,-2.3393200203815856,2.8512514462444503,-3.8006596969864286
3.398359770705044,1.4146258939022935,2.90294239059834,-2.37732661735145,2.8481552509324013,-3.871005608815194
3.412506029644067,1.4431074464116176,2.879169124424825,-2.416036673439602,2.824821330169592,-3.9160382370480007
3.426937104108183,1.4713556597133135,2.8550087576904293,-2.455197055810082,2.7832203821876886,-3.9387758529007497
3.4416506607053163,1.4991878635351903,2.8304567871323285,-2.4945848143390896,2.7255258851841333,-3.9425249513458303
3.456642539340668,1.5264431223870316,2.8055109389889377,-2.534010063852548,2.654017565853382,-3.930749232583297
3.4719069705645382,1.5529832980455653,2.7801708383504122,-2.573317556178381,2.5709896474216873,-3.906945805920352
3.487436803544994,1.5786931945197822,2.7544376627886282,-2.6123870142375845,2.478669173075268,-3.874535936935917
3.5032237354901916,1.6034798862505348,2.728313792646252,-2.6511323736069436,2.3791481509238266,-3.8367754749587473
3.519258534352697,1.6272713677597732,2.701802468910183,-2.689500128356531,2.27433154380496,-3.796687684934211
3.5355312480302947,1.6500146831978229,2.6749074676266176,-2.727467005205873,2.1659014916638784,-3.757018927896711
3.552031394862273,1.6716736981144615,2.647632797574559,-2.76503719448484,2.055296799331924,-3.7202157541818224
3.5687481318434178,1.6922266661077807,2.619982425629711,-2.8022393520266586,1.943705755089561,-3.6884206377226176
3.5856703985044955,1.7116637236586763,2.5919600321094443,-2.8391235584038848,1.8320697891143636,-3.663482816225448
3.6027870357410823,1.72998442154982,2.5635687965254053,-2.8757583865661394,1.7210952954693977,-3.6469804493920055
3.6200868799565806,1.747195374504514,2.534811212659744,-2.9122281910600596,1.6112710480957868,-3.640250451225026
3.637558833701626,1.7633080849854719,2.5056889307491432,-2.94863069557231,1.5028889480760645,-3.644422759565009
3.6551919145514806,1.7783369744662325,2.4762026237934203,-2.9850749231679603,1.3960662590985569,-3.660456350117721
3.672975284296143,1.7922976370572181,2.4463518745617407,-3.0216794866691377,1.2907679499739912,-3.6891748794393093
3.6908982606667156,1.805205316556958,2.4161350796950494,-3.0585712354635306,1.186828217846985,-3.731300375817251
3.7089503138322852,1.8170735987354278,2.3855493673404142,-3.095884239221703,1.0839706850476203,-3.7874838397601684
3.7271210498196394,1.827913305585904,2.3545905249481973,-3.1337590776193047,0.9818271360385814,-3.858331939528783
3.7454001828754984,1.8377315769462899,2.3232529341720043,-3.1723423970145928,0.8799549923910509,-3.9444291791426394
3.7637774986449615,1.8465311268702003,2.2915295102018582,-3.2117866888060194,0.7778540271977772,-4.046354971702612
3.7822428099136634,1.854309667142178,2.259411643313798,-3.2522502385230454,0.6749831171719528,-4.16469496651578
3.800785906585085,1.8610594983138975,2.2268891409285674,-3.293897188188203,0.5707781477585263,-4.300045748044987
3.819396501568224,1.8667672797914827,2.193950169046685,-3.3368976456686528,0.4646725554739705,-4.453011634809273
3.838064174366139,1.8714140053462225,2.1605811925899987,-3.3814277620167457,0.35612244861768194,-4.62419173399559
3.8567783144196013,1.8749752298323994,2.1267669149698314,-3.4276696793567014,0.2446388335764186,-4.814154618277831
3.8755280667179255,1.8774216181681636,2.0924902181762643,-3.4758112255394797,0.12983023495424023,-5.02339693919585
3.894302282899607,1.8787199205177059,2.0577321059208695,-3.5260451949314384,0.011459982265592852,-5.252280921419374
3.913089482104784,1.8788345203403618,2.022471653971555,-3.578568004145632,-0.11047631034465431,-5.500943937906656
3.9318778273081874,1.8777297572369152,1.9866859739300988,-3.6335774435246986,-0.23564599189871344,-5.769171206765124
3.9506551248805564,1.875373297317928,1.9503501994948518,-3.69126915559235,-0.3632384297795327,-6.0562200862485485
3.9694088578537357,1.8717409130201328,1.9134375079389283,-3.751831356454835,-0.4917769256248374,-6.360581599374156
3.988126266983937,1.8668231437638845,1.87591919437438,-3.8154371724485765,-0.6188706103188956,-6.679662047863784
4.006794498421576,1.8606344376606956,1.8377648226498944,-3.8822337929272144,-0.7408921897532149,-7.009365651401929
4.0254008427981836,1.8532255157631634,1.7989424847206221,-3.9523274494412335,-0.8525679950777759,-7.343559572508665
4.043933097955815,1.8446998358123856,1.7594192102262098,-4.02576304516632,-0.9464712132556095,-7.673408128977922
4.062380096313939,1.8352351236798294,1.7191615797745465,-4.102497126456099,-1.0124207334023483,-7.986577865725228
4.080732447550737,1.825110916345806,1.6781366085099856,-4.182362905113352,-1.0368117238264447,-8.266346171816643
4.098983556714195,1.8147427991075415,1.636312979458852,-4.265026366831518,-1.001946580025663,-8.490702436174448
4.117130984705271,1.804723333307285,1.5936627157905368,-4.349933391193263,-0.8855037113292933,-8.631622632682188
4.135178218038344,1.795868296193992,1.550163381878604,-4.436249617520085,-0.6603814965357246,-8.65483260253554
4.153136901000283,1.7892644812286347,1.505800885703403,-4.522797943545441,-0.29527977486992246,-8.52054512406981
4.171029545812569,1.7863116834799355,1.4605729062679487,-4.608003394786139,0.24349893728597874,-8.185821375731074
4.188892662647369,1.7887466728527952,1.4144928723200874,-4.68986160854345,0.988504745174251,-7.609271387287695
4.206780129375897,1.7986317203045377,1.3675942562346528,-4.765954322416327,1.965491534858782,-6.758600613841675
4.2247664465789425,1.8182866356531255,1.3199347130104895,-4.833540328554744,3.1858260223264723,-5.620820419245922
4.242949312935473,1.8501448958763902,1.271599309724942,-4.889748532747203,4.6380825248386115,-4.213651240837195
4.261450761894237,1.8965257211247764,1.22270182439747,-4.931885045155575,6.281187516238128,-2.5949822887904443
4.280416019105485,1.9593375962871575,1.1733829739459143,-4.957834868043479,8.042387074344227,-0.8660061212078521
4.300009395068357,2.0397614670306,1.1238046252654794,-4.966494929255558,9.822972248021333,0.8359445197227992
4.320407009738663,2.1379911895108132,1.0741396759729238,-4.95813548405833,11.512473657610588,2.355896693148804
4.341786921633771,2.2531159260869194,1.0245583211323406,-4.934576517126842,13.008438719720122,3.5473162217286838
4.36431808089464,2.3832003132841204,0.9752125559610721,-4.899103354909554,14.235832973274018,4.297869987187241
4.388150084027481,2.5255586430168604,0.9262215224119766,-4.856124655037682,15.159707160801155,4.546366487713236
4.41340567045765,2.677155714624872,0.8776602758615998,-4.8106609901605495,15.787591998024002,4.286047209654544
4.440177227603899,2.8350316346051123,0.8295536659599942,-4.767800518064004,16.162411461438595,3.555121397848563
4.46852754394995,2.996655749219498,0.7818756607793542,-4.732249304085519,16.349961395673322,2.419781207086076
4.4984941014421445,3.1601553631762314,0.734553167738499,-4.708051492014659,16.42575223619938,0.9559864582125261
4.530095655073906,3.324412885538225,0.6874726528183523,-4.698491627432533,16.46467301089413,-0.7654208987792791
4.563339783929289,3.4890596156471663,0.640487736544027,-4.706145836420326,16.53487361018607,-2.6884278047346823
4.59823038008576,3.654408351749027,0.5934262781798237,-4.733030114467673,16.69563130660525,-4.776730778369476
4.63477446360325,3.8213646648150794,0.546095977035147,-4.780797422251368,16.99817979686322,-7.015236779195749
4.672988110251401,3.9913464627837114,0.4982880028126333,-4.850949790043325,17.488389983091462,-9.409838203826284
4.712901574879238,4.166230362614626,0.44977850491220006,-4.945048172081588,18.210472047799996,-11.986845840827158
4.754563878505384,4.348335083092626,0.40032802319138416,-5.06491663048986,19.21124834225577,-14.793075977756747
4.79804722933631,4.5404475665151836,0.3496788568864856,-5.212847390267427,20.544881524469638,-17.89727018686635
4.8434517050014625,4.74589638175988,0.2975503829838113,-5.391820092136091,22.278177870372428,-21.393322154061767
4.890910668819061,4.968678160463604,0.2436321820624504,-5.605753313676709,24.49669083408386,-25.40563132359802
4.940597450423698,5.213645068804443,0.18757464892568332,-5.859809626912689,27.31173241362451,-30.096603432532195
4.992733901111742,5.486762392940688,0.12897655265655644,-6.160775661238011,30.867754326573134,-35.67538411090703
5.047601525041149,5.795439936206419,0.06736879604417634,-6.517529502347082,35.34750014249146,-42.40406045295162
5.1055559244032125,6.148914937631334,0.002193501020705521,-6.941570106876598,40.96640200250115,-50.58934480381232
5.1670450737795255,6.558578957656345,-0.06722220004806045,-7.447463554914721,47.93129982500391,-60.52491062059798
5.232630863356089,7.037891955906384,-0.14169683559720767,-8.052712661120701,56.29476018709645,-72.28831826322286
5.3030097829151535,7.600839557777348,-0.22222396220841467,-8.77559584375293,65.52776556137036,-85.14437486774628
5.3790181784929265,8.256117213391052,-0.309979920645944,-9.627039592430393,73.42085698278832,-96.00774220583489
5.461579350626837,8.990325783218935,-0.4062503165702479,-10.587117014488742,73.85360520599528,-96.3159177469314
5.551482608459026,9.728861835278888,-0.5121214867151354,-11.550276191958057,54.98102403078557,-69.47550318390344
5.6487712268118155,10.278672075586744,-0.6276242486347159,-12.245031223797092,7.597420715216312,-2.559803703773404
5.751557947567683,10.354646282738907,-0.7500745608726869,-12.270629260834825,-49.571604984322,78.30992918729477
5.8551044103950725,9.858930232895688,-0.8727808534810351,-11.487529968961878,-78.60941441549328,120.28535035315126
5.9536937127240295,9.072836088740754,-0.9876561531706538,-10.284676465430366,-76.16523958965017,118.78608871565156
6.044422073611437,8.311183692844253,-1.0905029178249575,-9.09681557827385,-62.31120037336956,101.7085691499515
6.12753391053988,7.688071689110557,-1.1814710736076959,-8.079729886774334,-48.33980834253792,84.67013740496387
6.204414627430985,7.204673605685178,-1.262268372475439,-7.233028512724696,-36.92286614507286,71.34528928823165
6.2764613634878375,6.83544494423445,-1.334598657602686,-6.519575619842379,-27.972105282930556,61.60777764276757
6.344815812930182,6.555723891405144,-1.3997944138011098,-5.903497843414703,-20.908284890588096,54.65999798804555
6.410373051844234,6.346641042499263,-1.4588293922352569,-5.356897863534248,-15.210748492439384,49.78231059574697
6.473839462269226,6.194533557574869,-1.5123983708705993,-4.859074757576778,-10.497531284624797,46.436111463588574
6.5357847978449755,6.089558244728621,-1.5609891184463671,-4.394713642940892,-6.505943786737771,44.23050946290789
6.596680380292262,6.024498806861243,-1.604936254875776,-3.952408548311813,-3.062582710489819,42.87442476786951
6.6569253683608745,5.993872979756345,-1.644460340358894,-3.5236643006331176,-0.060070071549574805,42.137816558658116
6.716864098158438,5.993272279040849,-1.679696983365225,-3.1022861350465365,2.5587119409393075,41.823697123571776
6.776796820948847,6.0188593984502425,-1.7107198447156904,-2.6840491638108186,4.811275577285703,41.748998915851104
6.836985414933349,6.0669721542231,-1.7375603363537986,-2.2665591746523077,6.683634514928029,41.73284833917856
6.8976551364755805,6.13380849937238,-1.7602259281003216,-1.849230691260522,8.138050327888664,41.59181672534548
6.958993221469305,6.215189002651266,-1.778718235012927,-1.4333125240070672,9.12207607315981,41.14231869412184
7.021145111495818,6.306409763382865,-1.7930513602529976,-1.0218893370658488,9.579786201488119,40.21015931999112
7.0842092091296465,6.402207625397746,-1.803270253623656,-0.6197877438659376,9.46497664816749,38.64617377885282
7.148231285383624,6.496857391879421,-1.8094681310623153,-0.2333260060774094,8.754791374967922,36.34516736422116
7.213199859302419,6.5844053056291,-1.8118013911230895,0.13012566756480226,7.4611039396709256,33.26362557932951
7.27904391235871,6.659016345025809,-1.8105001344474414,0.4627619233580974,5.63666329249554,29.430932829644217
7.345634075808968,6.715382977950765,-1.8058725152138604,0.7570712516545396,3.3739290803635726,24.949936593256055
7.412787905588476,6.749122268754401,-1.798301802697315,1.0065706175871,0.7965085784686805,19.98559722880404
7.48027912827602,6.757087354539087,-1.7882360965214439,1.2064265898751405,-1.9546691508301164,14.744065489607692
7.547850001821411,6.737540663030786,-1.7761718306226926,1.3538672447712174,-4.736903298952879,9.447202980665113
7.615225408451719,6.690171630041257,-1.7626331581749803,1.4483392745778685,-7.419474305927355,4.308182967805628
7.682127124752132,6.615976886981983,-1.7481497654292018,1.4914211042559247,-9.893305822540633,-0.4875717145583567
7.748286893621952,6.517043828756576,-1.7332355543866425,1.4865453871103411,-12.07590221727053,-4.794226200463284
7.813457331909517,6.396284806583871,-1.718370100515539,1.4386031251057083,-13.912245247890516,-8.510422902442565
7.877420179975356,6.257162354104966,-1.7039840692644819,1.3534988960812826,-15.37293962576464,-11.578757788294187
7.939991803516406,6.103432957847319,-1.6904490803036691,1.2377113181983408,-16.450868075322674,-13.981686709175767
8.001026133094879,5.938924277094093,-1.6780719671216857,1.0978944511065831,-17.15725384641411,-15.735415657746952
8.06041537586582,5.7673517386299515,-1.66709302261062,0.9405402945291136,-17.51762600494452,-16.882855884397372
8.11808889325212,5.592175478580506,-1.6576876196653287,0.7717117356851398,-17.5679055161394,-17.486334855877242
8.174010648037925,5.416496423419112,-1.6499705023084774,0.5968483871263675,-17.35070986518551,-17.620529369120863
8.228175612272116,5.242989324767256,-1.6440020184372137,0.4206430934351588,-16.911961414949797,-17.365986821052527
8.28060550551979,5.073869710617759,-1.639795587502862,0.24698322522463356,-16.297908772759524,-16.803543817274566
8.331344202625967,4.910890622890164,-1.6373257552506157,0.0789477870518879,-15.552678045180766,-16.00987671509559
8.38045310885487,4.755363842438356,-1.6365362773800969,-0.08115098009906802,-14.71644156963675,-15.054307297176267
8.428006747279253,4.608199426741989,-1.6373477871810875,-0.23169405307083069,-13.824232856444214,-13.996854774429696
8.474088741546673,4.469957098177547,-1.639664727711796,-0.37166260081512764,-12.905368938466765,-12.887403562966004
8.518788312528448,4.3409034087928795,-1.6433813537199473,-0.5005366364447876,-11.983385559628601,-11.765770827227682
8.562197346616378,4.221069553196593,-1.6483867200843951,-0.6181943447170645,-11.076358481308061,-10.662419821265527
8.604408042148343,4.110305968383512,-1.6545686635315657,-0.7248185429297197,-10.19747738773494,-9.599570750028777
8.645511101832177,4.008331194506163,-1.661816848960863,-0.8208142504300074,-9.355751977140766,-8.592497065300275
8.685594413777238,3.9147736747347555,-1.670024991465163,-0.9067392210830102,-8.556754446412683,-7.650846212829911
8.724742150524586,3.8292061302706286,-1.6790923836759932,-0.9832476832113093,-7.80333081115421,-6.779876750212911
8.763034211827293,3.7511728221590865,-1.6889248605081064,-1.0510464507134385,-7.096239720211772,-5.9815499814834485
8.800545940048883,3.680210424956969,-1.6994353250152407,-1.110861950528273,-6.434698610773237,-5.255449906121121
8.837348044298453,3.6158634388492366,-1.7105439445205235,-1.1634164495894843,-5.81683231337033,-4.599529853982332
8.873506678686946,3.5576951157155334,-1.7221781090164183,-1.2094117481293076,-5.2400290048845894,-4.010699136238373
8.909083629844101,3.5052948256666876,-1.7342722264977115,-1.2495187394916913,-4.70121381002299,-3.4852706394114477
8.944136578100768,3.4582826875664576,-1.7467674138926284,-1.2843714458858058,-4.197052602187399,-3.0192928083118926
8.978719404976433,3.4163121615445835,-1.7596111283514864,-1.3145643739689248,-3.72409875915971,-2.608788829944033
9.012882526591879,3.3790711739529864,-1.7727567720911757,-1.3406522622683652,-3.2788946533576597,-2.249923487171967
9.046673238331408,3.34628222741941,-1.7861632947138593,-1.3631514971400849,-2.8580381142082274,-1.9391150807469162
9.080136060605602,3.317701846277328,-1.79979480968526,-1.382542647947554,-2.458222389507139,-1.6731066306508924
9.113313079068375,3.2931196223822563,-1.8136202361647356,-1.399273714254063,-2.0762564883029193,-1.4490075996884948
9.146244275292197,3.272357057499227,-1.8276129733072761,-1.413763790250948,-1.709071331801494,-1.2643147879400962
9.17896784586719,3.255266344181212,-1.8417506112097857,-1.4264069381303488,-1.3537159212074126,-1.1169188662323843
9.211520509309002,3.241729184969138,-1.856014680591089,-1.4375761267926725,-1.0073467611060767,-1.0051012249375044
9.243937801158694,3.2316557173580773,-1.8703904418590158,-1.4476271390420477,-0.6672130423701329,-0.9275243518773524
9.276254358332274,3.224983586934376,-1.8848667132494363,-1.4569023825608212,-0.3306395714756824,-0.8832177449519083
9.308504194201618,3.2216771912196194,-1.8994357370750445,-1.4657345600103402,0.004990882358677218,-0.8715603300663206
9.340720966113814,3.221727100043206,-1.9140930826751479,-1.4744501633110034,0.3422542724786668,-0.8922594085117661
9.372938237114246,3.2251496427679927,-1.928837584308258,-1.483372757396121,0.6836993663014953,-0.9453252113972447
9.405189733541926,3.2319866364310075,-1.943671311882219,-1.4928260095100936,1.0318573218640037,-1.0310390951580402
9.437509599906235,3.2423052096496474,-1.95859957197732,-1.503136400461674,1.3892442754030874,-1.149912160916232
9.469932652002731,3.2561976524036784,-1.9736309359819366,-1.5146355220708363,1.75835359267058,-1.3026294905454698
9.502494628526767,3.2737811883303842,-1.988777291202645,-1.527661816976291,2.141633154351592,-1.489973106503787
9.535232440410072,3.2951975198739003,-2.004053909372408,-1.5425615480413288,2.541441239118389,-1.7127139953862676
9.56818441560881,3.320611932265084,-2.0194795248528212,-1.5596886879951914,2.9599721000639874,-1.9714598810746318
9.601390534931461,3.350211653265724,-2.0350764117327733,-1.5794032868059378,3.3991390652025433,-2.2664406973014137
9.634892651464119,3.3842030439177493,-2.050870444600833,-1.602067693778952,3.8603988469296104,-2.5972077840767516
9.668734681903297,3.422807032387045,-2.0668911215386223,-1.6280397716197195,4.344495801855949,-2.9622158634792335
9.702962752227167,3.466251990405605,-2.0831715192548197,-1.6576619302545117,4.85109961461875,-3.3582495603452065
9.737625272131224,3.5147629865517924,-2.0997481385573646,-1.6912444258579638,5.378305559745222,-3.779650510351229
9.772772901996742,3.5685460421492445,-2.1166605828159444,-1.729040930961476,5.921965886901473,-4.217300984469047
9.808458362418234,3.627765701018259,-2.133950992125559,-1.7712139408061665,6.474829279640904,-4.657333149053041
9.844736019428417,3.6925139938146683,-2.1516631315336205,-1.8177872722966968,7.025491935620629,-5.079572813060236
9.881661159366564,3.7627689131708744,-2.1698410042565874,-1.8685830004272992,7.557222732342319,-5.4558130546444925
9.919288848498272,3.8383411404942978,-2.1885268342608604,-1.923141130973744,8.046834363346662,-5.748172420493095
9.957672259903216,3.9188094841277645,-2.2077582455705977,-1.980622855178675,8.463947918956187,-5.908046562367024
9.996860354744493,4.003448963317326,-2.2275644741223846,-2.0397033208023454,8.771234785661765,-5.876502917825284
