th1 (rad),w1 (rad/s),th2 (rad),w2 (rad/s)
1.9959745871331565,-2.1682295351208305,5.865854639219106,1.0121035208325808
1.974292291781948,-2.259960837107839,5.875975674427432,1.0146555233786307
1.9516926834108697,-2.3506356434185616,5.886122229661218,1.022939087544407
1.9281863269766841,-2.440314272994201,5.896351620536662,1.037258568501411
1.903783184246742,-2.529087385634688,5.906724206221677,1.0579016557140506
1.8784923103903952,-2.6170777541753014,5.917303222778817,1.0851412952924742
1.8523215328486422,-2.704442150661079,5.928154635731742,1.1192384973699085
1.8252771113420314,-2.7913734212580303,5.9393470207054415,1.1604460994370696
1.797363377129451,-2.8781028398445576,5.950951481699812,1.2090135690104098
1.7685823487310055,-2.9649028496948704,5.963041617389917,1.265192945984318
1.738933320234057,-3.0520903274651587,5.97569354684976,1.329246048054622
1.7084124169594053,-3.140030535074268,5.988986007330306,1.40145309372516
1.6770121116086625,-3.2291419645504296,6.003000538267558,1.4821229391705428
1.6447206919631583,-3.3199023303574564,6.017821767659263,1.5716051807150826
1.6115216686595837,-3.4128560253768723,6.033537819466414,1.6703044474793396
1.577393108405815,-3.5086234332149666,6.050240863941207,1.7786973027194986
1.5423068740736654,-3.607912583505585,6.068027836968402,1.8973522911999576
1.5062277482386095,-3.7115337503608488,6.087001359880402,2.026953815813218
1.469112410735001,-3.820417726500998,6.107270898038534,2.1683306976530083
1.4309082334699912,-3.9356386496930758,6.128954205015064,2.3224904579414143
1.3915518469730603,-4.0584423915890415,6.152179109594478,2.490660523501417
1.35096742305717,-4.190281586400383,6.1770857148294915,2.6743376181494254
1.3090646071931662,-4.332858252200486,6.203829091010986,2.8753463785280573
1.2657360246711613,-4.488174367329383,6.2325825547962665,3.095907333309273
1.2208542809978675,-4.658589126113275,6.263541628129359,3.338711982713026
1.1742683897367348,-4.84687768727992,6.296928747956489,3.6069970798175053
1.1257996128639356,-5.056277490119911,6.332998718754664,3.9045977447904923
1.0752368379627364,-5.2904893737361585,6.372044696202568,4.235932317928474
1.0223319442253749,-5.553561141504396,6.414404019381853,4.605815909925252
0.966796332810331,-5.849500386486169,6.460462178481105,5.01888569210222
0.9083013289454692,-6.1813064212660525,6.510651035402128,5.478200142288501
0.8464882647328087,-6.548837374348993,6.565433036825013,5.982189933111872
0.7809998909893188,-6.944572816507138,6.625254936156131,6.518639985205876
0.7115541628242474,-7.3463431122088965,6.69044133600819,7.054403640678882
0.6380907317021585,-7.708195379370803,6.760985372414979,7.5225177071584906
0.5610087779084504,-7.958029328005605,6.836210549486563,7.81891743697694
0.4814284846283943,-8.020767563324885,6.914399723856333,7.835233745962823
0.40122080899514545,-7.8711339311141995,6.992752061315961,7.533441813129522
0.32250946968400346,-7.563764008786282,7.068086479447256,6.988698782501511
0.24687182959614062,-7.191656027120324,7.137973467272271,6.331194141238765
0.17495526932493738,-6.826549057709962,7.201285408684659,5.6621628295095
0.10668977874783776,-6.502559893430405,7.257907036979754,5.030428385558581
0.04166417981353371,-6.228789953317053,7.30821132083534,4.4497371466844475
-0.02062371971963682,-6.0031020122551535,7.352708692302184,3.917951766676504
-0.08065473984218835,-5.819681958265246,7.39188820996895,3.4276630578116127
-0.13885155942484081,-5.6722099723442,7.426164840547066,2.97069827130204
-0.1955736591482828,-5.554943719810204,7.455871823260086,2.5397143032557095
-0.25112309634638486,-5.4629601118728885,7.481268966292643,2.128608842417269
-0.30575269746511374,-5.392098609571595,7.502555054716816,1.7325064442152711
-0.3596736835608297,-5.338820696544424,7.519880119158969,1.3476193252108277
-0.4130618905262739,-5.300064113653301,7.533356312411077,0.9710923117634833
-0.4660625316628069,-5.2731172680948335,7.543067235528712,0.600866320730321
-0.5187937043437553,-5.255519509563421,7.549075898736015,0.23556651606018125
-0.5713488994393895,-5.244986280389911,7.5514315638966165,-0.12558845053652906
-0.6237987622432886,-5.239356310773467,7.550175679391251,-0.4828622734627422
-0.6761923253510232,-5.23655782024984,7.545347056656624,-0.8360679100046569
-0.7285579035535217,-5.23459087040061,7.536986377556577,-1.1846304423768914
-0.7809038122575278,-5.231523165153196,7.525140073132808,-1.5276492687803096
-0.8332190439090598,-5.225496618908748,7.509863580445004,-1.8639614723315021
-0.8854740100981473,-5.21474195104058,7.491223965721689,-2.1922067792764994
-0.9376214296085531,-5.197598509421632,7.469301897928924,-2.5108933005062295
-0.9895974147027694,-5.172536569555111,7.444192964923862,-2.8184623609056683
-1.0413227803983205,-5.138179566390879,7.4160083413148055,-3.11335023749984
-1.0927045760622294,-5.0933241146723205,7.384874838939807,-3.394044575739476
-1.1436378172089525,-5.0369562319230745,7.3509343931824125,-3.659133593804871
-1.1940073795281834,-4.96826282479791,7.314343057244364,-3.907346814510341
-1.2436900077761626,-4.886638139839328,7.275269589099261,-4.137586837002082
-1.292556389174556,-4.791685419762627,7.23389372072924,-4.3489524178748615
-1.3404732433721822,-4.683214375494478,7.1904041965504915,-4.540753737109105
-1.387305387127127,-4.561235249601736,7.144996659179401,-4.71252108942618
-1.4329177396231443,-4.425950217992017,7.097871448285139,-4.864008337329975
-1.4771772418030644,-4.277742699635114,7.049231364911839,-4.995192316956696
-1.5199546687994157,-4.117164887478966,6.999279441742273,-5.106269074166188
-1.5611263176742054,-3.9449235536059453,6.9482167510006105,-5.197647421289281
-1.6005755532102648,-3.761863985370783,6.896240276787718,-5.269939941023635
-1.6381941930639725,-3.5689518236332467,6.843540877377482,-5.323951302244391
-1.6738837113003049,-3.3672526185937324,6.790301364355038,-5.360663642033258
-1.7075562374862423,-3.1579090836062713,6.736694727934705,-5.3812188223796875
-1.739135328322305,-2.9421162781852868,6.682882539710908,-5.386897567747187
-1.7685564911041578,-2.721095237123693,6.6290135640334364,-5.3790957830732085
-1.7957674434753947,-2.4960658264764186,6.575222606202704,-5.359298677655191
-1.8207281017401589,-2.268219798279607,6.521629619426152,-5.329053614061089
-1.843410299722955,-2.038695098851326,6.468339083285541,-5.289942809039922
-1.8637972507114682,-1.8085524460727165,6.415439655195142,-5.243557101957259
-1.8818827751721954,-1.578755036884848,6.363004084175569,-5.1914719663623785
-1.8976703255410439,-1.3501520032984515,6.311089364511945,-5.135226785627303
-1.9111718455740283,-1.1234659407027048,6.259737096655672,-5.0763081750550905
-1.9224065049810553,-0.8992845264437207,6.208974014905121,-5.016137850272793
-1.9313993502454925,-0.6780559654630713,6.158812636402393,-4.9560652554809925
-1.9381799099001231,-0.46008776971242943,6.109251983847583,-4.897364909312235
-1.9427807875972474,-0.2455482138373569,6.060278334754461,-4.841238224240834
-1.945236269735621,-0.034469714723451894,6.011865952512053,-4.788819419340211
-1.9455809668828554,0.17324664842725224,5.96397775831865,-4.741185076202884
-1.9438485003985828,0.3778262343835964,5.916565907556621,-4.6993668753978115
-1.9400702380547468,0.5796162575958896,5.869572238802643,-4.664367080384238
-1.934274075478788,0.7790821246382271,5.822928567998801,-4.6371763861961615
-1.9264832542324057,0.9768051661816417,5.776556804136839,-4.618793794316308
-1.9167152025705894,1.1734820804670207,5.730368866193676,-4.6102481765909245
-1.9049803817659192,1.369926182641956,5.684266384427767,-4.612621096672424
-1.8912811199394997,1.5670702206119282,5.638140173461043,-4.627070183256512
-1.8756104177333803,1.7659699768830763,5.591869471628478,-4.6548517552319275
-1.8579507179645496,1.9678069583319244,5.545320954076158,-4.697340245725114
-1.8382726483812304,2.17388688963272,5.498347551618907,-4.756039850098906
-1.8165337794849032,2.385627975300143,5.4507871531179175,-4.832580036871282
-1.7926774997319017,2.604528162628884,5.402461352749205,-4.928679960751418
-1.7666322181056129,2.832092646261436,5.353174553141691,-5.046055600690179
-1.7383112916429986,3.0696898208177927,5.302713997134789,-5.186225081150059
-1.7076143934348207,3.3182839661787216,5.250851746323288,-5.350139470723839
-1.6744315537730334,3.57796634892824,5.19735035161605,-5.537528561736401
-1.638651890283751,3.8471820511740926,5.141975065998686,-5.745816020858472
-1.60018006977201,4.12156171606467,5.084516905790101,-5.968473360863034
-1.5589644526113635,4.392403878697635,5.024832172181471,-6.192871321153864
-1.5150404138243871,4.6452727909942615,4.962903458969932,-6.398273125987685
-1.4685876859144444,4.859979028807058,4.898920727710055,-6.555740202288631
-1.4199878956263738,5.013925816292666,4.833363325687169,-6.632732990799782
-1.369848637463447,5.089774554455501,4.767035995779171,-6.603765193546987
-1.3189508919188921,5.084204813347134,4.700998343843701,-6.462635935943831
-1.2681088437854209,5.010755666734193,4.636371984484263,-6.226462109762113
-1.218001287118079,4.893495480094403,4.574107363386641,-5.9269661327744885
-1.1690663323171349,4.756954851379062,4.514837702058896,-5.596571686306056
-1.1214967838033443,4.619628362492807,4.458871985195835,-5.259445098180264
-1.0753005001784162,4.492748883014805,4.406277534214032,-4.929823902111462
-1.030373011348268,4.381912511828747,4.356979295192918,-4.614264435726741
-0.9865538862299806,4.289187847516381,4.31083665083565,-4.3145391342153845
-0.9436620077548168,4.214728036648689,4.267691259493496,-4.029838790817464
-0.9015147273883299,4.157774434901326,4.227392871585321,-3.758135672018405
-0.8599369830393166,4.1172145328207295,4.189811514865137,-3.49693672125577
-0.8187648377111093,4.091867026730177,4.154842147652579,-3.243666943996932
-0.7778461674438075,4.0806139644767825,4.1224054782126105,-2.9958485458640274
-0.7370400277990397,4.082451508306551,4.09244699275397,-2.7511742434710516
-0.6962155127159741,4.096498993071119,4.06493525031926,-2.5075292646204397
-0.655250522785263,4.121987367451413,4.039859957673055,-2.2629910826423547
-0.6140306491107488,4.158237870316374,4.017230046846632,-2.0158219530076646
-0.5724482704075851,4.204636349926391,3.9970718273165553,-1.7644618579157425
-0.5304019069083211,4.260605829191048,3.979427208737398,-1.5075255167456343
-0.4877958486164106,4.325578550877775,3.9643519535699414,-1.243805004036884
-0.4445400631076329,4.398968150473084,3.9519139035295727,-0.9722783170788556
-0.4005503816029021,4.480142451752364,3.942191120358784,-0.6921234639051275
-0.35574895708537846,4.568397469474882,3.9352698857197326,-0.4027370470468268
-0.31006498239062963,4.662933420816967,3.9312425152492643,-0.10375578189368018
-0.26343564818245996,4.762833811026901,3.9302049574303273,0.20492112099298837
-0.21580731007219095,4.867048897936011,3.9322541686402572,0.523111235538989
-0.16713682109283085,4.974384983291259,3.9374852809956473,0.8503327185975879
-0.11739297125991827,5.083500956661309,3.945988608181623,1.1857955938317615
-0.06655796169330518,5.192913271388514,3.9578465641199405,1.5284032754651307
-0.014628828979420035,5.301010030451093,3.973130596874592,1.8767664757343407
0.03838127132509089,5.406074116899506,3.991898261631935,2.2292306120090033
0.09244201249408596,5.506314390145793,4.014190567752025,2.583916450340852
0.1475051563955439,5.599903015032339,4.040029732255434,2.9387721534357922
0.2035041865458673,5.685016164739726,4.069417453789792,3.2916333850189896
0.26035434819326453,5.759874816077973,4.102333787639982,3.6402869378537175
0.3179530963540443,5.822782272662067,4.138736657018519,3.982532749277276
0.376180919080665,5.872155465521925,4.178561984511292,4.316239300842216
0.43490247373588425,5.906547950033439,4.221724377519714,4.639388281465413
0.49396795323621867,5.924663707870686,4.268118260334369,4.95010589175215
0.5532145903149255,5.925362177132302,4.31761931925189,5.246680030786881
0.6124682120862485,5.907656161943214,4.370086119559759,5.527564531632384
0.6715447737056806,5.870705232430357,4.425361764876083,5.791373307696553
0.7302518260299842,5.81380779192849,4.4832754979530485,6.0368685143580905
0.7883899039492691,5.736395100646222,4.543644183096629,6.2629474840555
0.8457538549557313,5.638030200399671,4.606273657937184,6.468633210709803
0.902134156959728,5.518413920930211,4.670959990044282,6.653072560945772
0.9573182961690301,5.377399030956054,4.73749071565374,6.815545242015122
1.0110922864785907,5.215012218722059,4.805646168073891,6.955484962125958
1.0632424086658112,5.031482072738319,4.875201017695151,7.072512318598001
1.1135572293931943,4.827269752007649,4.945926140881131,7.16647693263245
1.1618299269132708,4.603097799591036,5.017590910207455,7.237504463192867
1.207860904909181,4.359971804311744,5.089965954839384,7.286042669727296
1.2514606229522984,4.099189577138717,5.162826381536656,7.312899954436263
1.2924525187236855,3.822333325435846,5.235955381081019,7.3192700385167795
1.330675851978044,3.5312419765702643,5.309148081466187,7.306737710054596
1.3659882717437466,3.227963129385311,5.3822154585667334,7.277262814263231
1.3982679030375997,2.9146867240379835,5.454988086709366,7.233142508631127
1.4274147702779796,2.5936649344564113,5.527319511795677,7.176954778624822
1.4533514196225437,2.2671245294370057,5.599089059581925,7.111488756413983
1.4760226649169137,1.937178681969025,5.6702039471460655,7.03966905151838
1.495394451736604,1.6057448232810376,5.740600637661249,6.964481846435452
1.5114518999694144,1.2744737764658902,5.810245456125603,6.888909954212342
1.5241966377340734,0.944693392613908,5.879134555667727,6.815882634328416
1.5336435716602126,0.6173676630287281,5.9472933820110105,6.748244113923593
1.5398172482905,0.29307017914595723,6.014775823150247,6.688742881586593
1.5427479500819594,-0.028030867796933256,6.081663251966113,6.640042250528152
1.5424676414039902,-0.3461800784927479,6.148063674471394,6.604751628821736
1.5390058406190628,-0.6620391144763005,6.214111190759612,6.585477432512383
1.5323854494742997,-0.9766923681360119,6.2799659650847355,6.58489252834569
1.5226185257929394,-1.291658110570407,6.345814890368192,6.605823237138564
1.5097019446872353,-1.6089081535322585,6.411873122739578,6.651352790836968
1.4936128631519128,-1.930896992534434,6.478386650647948,6.724938834651494
1.4743038932265684,-2.260597185601624,6.545636038994464,6.830538358752434
1.451697921370552,-2.601528855082214,6.613941422581988,6.972722735673982
1.4256826328197298,-2.957752290773541,6.683668649938728,7.156740791405798
1.3961051099119945,-3.3337524679446795,6.755236057852786,7.388433391367158
1.3627675852325478,-3.734060556087784,6.829120391766457,7.673787576500573
1.32542697967167,-4.1622900531016,6.905858267531463,8.017685150005862
1.283804079140654,-4.6189605375331535,6.986035119031522,8.420973037145563
1.2376144737653225,-5.097051521896573,7.070244849402977,8.874371435067507
1.1866439585463568,-5.574114503148625,7.158988563753653,9.34754826033805
1.1309028135148707,-6.00187760774902,7.252464046357033,9.774574619340106
1.0708840374373805,-6.3026438966938105,7.350209792550434,10.04859021179196
1.0078575984704423,-6.3942625977438405,7.450695694668354,10.05591610423939
0.9439149724930039,-6.249747271847676,7.551254855710748,9.758100921896464
0.8814174997745272,-5.930937928064527,7.648835864929713,9.237944470403514
0.8221081204938819,-5.53981818263524,7.741215309633748,8.63209096498907
0.7667099386675296,-5.152496634607123,7.827536219283639,8.040832305113193
0.7151849723214584,-4.80391172053428,7.9079445423347705,7.508212777070897
0.6671458551161156,-4.503010730238147,7.983026670105479,7.043439659927196
0.6221157478137341,-4.247583905387204,8.05346106670475,6.641230520525124
0.579639908759862,-4.031988033424923,8.119873371910002,6.292199025955855
0.5393200284256128,-3.8502618119530823,8.18279536216956,5.9869242437334975
0.500817410306082,-3.6971505786705094,8.242664604606896,5.7172084375668115
0.46384590451937685,-3.568318255910811,8.299836688982564,5.476271324017737
0.4281627219602687,-3.4602811534534896,8.354599402222743,5.258599661137899
0.3935599104257338,-3.37026777195046,8.407185398834121,5.059720525901384
0.3598572327062292,-3.2960761062729866,8.457782604093135,4.87598898439127
0.32689647164349933,-3.235949392032957,8.506542493937047,4.704414861871071
0.2945369777231698,-3.188472966553094,8.553586642555757,4.542530550436644
0.2626522480576388,-3.1524889802838705,8.599011948060124,4.388295168607949
0.2311273582548001,-3.1270243241281417,8.642894899746203,4.240029468784463
0.1998571150135187,-3.1112273730366726,8.685295194434048,4.096376698990796
0.16874484128315195,-3.104309920840964,8.726258961423955,3.956285654680112
0.1377017420747423,-3.105491679692392,8.765821817970757,3.819012808276747
0.1066468252778184,-3.1139459206668527,8.804011946053524,3.6841404024975515
0.07550736607114987,-3.128746324904701,8.8408533500785,3.551606576404137
0.04421990282210286,-3.1488169778559993,8.876369415842541,3.421741883760727
0.012731733043542873,-3.1728896542362355,8.91058683468015,3.2953040414594326
-0.018997163498819483,-3.199474885291226,8.943539875094743,3.1734997826724944
-0.05099191235173174,-3.2268552490649096,8.975274872921467,3.0579800913821766
-0.08326046484238084,-3.2531100272612026,9.00585467383529,2.9507941551042527
-0.11579156511499286,-3.276178789700349,9.035362615386331,2.854289681496874
-0.14855335301199635,-3.293966756587079,9.0639055122013,2.770954113462543
-0.18149302057786715,-3.304486898070873,9.091615053335925,2.7032029331943694
-0.2145378895585759,-3.306023958244944,9.118647082667868,2.653135849074717
-0.24759812914102533,-3.2972966811015723,9.145178441158615,2.6222951868011
-0.28057109595204105,-3.2775899273600277,9.171401393026626,2.611468067607408
-0.31334699522564136,-3.246830794518131,9.1975160737027,2.6205707996370755
-0.34581530317082265,-3.2055926792844636,9.22372178169907,2.6486395739693522
-0.3778712299636673,-3.155025940908159,9.250208177438763,2.6939296885951594
-0.40942148937274886,-3.09672889301973,9.277147474324714,2.7541029432369517
-0.44038877830294615,-3.032583646489565,9.304688503757083,2.826466611950261
-0.4707146147678418,-2.9645850744924203,9.332953169876586,2.908221801755051
-0.500360465512766,-2.894687842153938,9.362035387894135,2.9966841400816633
-0.5293073439343055,-2.824688292197239,9.392002229294953,3.0894521585365244
-0.5575542268562779,-2.7561482318224213,9.422896750880318,3.1845135038604595
-0.5851157091745021,-2.690359154812755,9.454741885918923,3.2802918821657823
-0.6120193007226297,-2.628339776147912,9.48754480474058,3.375645991829997
-0.6383026984841088,-2.570857260616308,9.521301264658879,3.46983521873531
-0.6640112710902719,-2.5184625779451952,9.555999616846233,3.562466553268169
-0.6891958968697238,-2.471532023284504,9.591624282378914,3.653434591239245
-0.7139112171025689,-2.4303091659794847,9.628158628291306,3.742863037032266
-0.7382143087623637,-2.3949436678515346,9.66558725866163,3.8310528323728805
-0.7621637454408791,-2.365525191391146,9.703897786985358,3.9184394001265566
-0.7858189973547905,-2.3421118885628545,9.743082180986624,4.005559660461458
-0.8092401162404191,-2.3247537596834227,9.78313777759124,4.093028368954469
-0.8324876538372533,-2.313511600945031,9.824068061280784,4.1815227734591724
-0.8556227698467036,-2.308472430909368,9.865883289015375,4.271774408140152
-0.8787074941557973,-2.30976229557212,9.908601033096778,4.36456688570561
-0.9018051171115185,-2.3175572658128125,9.952246701953834,4.460738697054364
-0.9249806897696465,-2.33209329934742,9.996854088924378,4.561190198490075
-0.9483016227631207,-2.3536754545268073,10.042465990909278,4.666894097759394
-0.9718383773083887,-2.3826867024688703,10.089134931886871,4.778908782976405
-0.9956652443330775,-2.419596244059108,10.136924019716636,4.898393698819155
-1.0198612067736685,-2.4649667142197846,10.185907956704828,5.02662554535829
-1.0445108739158664,-2.51945879582862,10.23617421215841,5.165013156033082
-1.0697054618741526,-2.5838303071252247,10.287824343718741,5.315107152512801
-1.095543764945405,-2.6589243211568077,10.34097541524387,5.4785972684054585
