th1 (rad),w1 (rad/s),th2 (rad),w2 (rad/s)
4.596901885404247,0.34826266977242337,2.5191747400076836,-2.8463885739953314
4.600384512101971,0.4030384760009623,2.4907108542677303,-2.875868915711624
4.6044148968619805,0.4571834806157987,2.461952165110614,-2.9060660155793823
4.608986731668138,0.5107543942737627,2.4328915049548203,-2.9369188015746746
4.614094275610876,0.5638201857379004,2.4035223169390734,-2.9683618548951505
4.619732477468255,0.6164635111014335,2.373838698390122,-3.000323184748037
4.62589711257927,0.6687824008640745,2.3438354665426413,-3.0327216631767855
4.63258493658791,0.7208922204582512,2.3135082499108734,-3.065464101554864
4.639793858792492,0.7729279057867329,2.2828536088953246,-3.098441968160241
4.647523137850359,0.8250464517969683,2.251869189213722,-3.1315277769753993
4.6557736023683285,0.8774295951574149,2.220553911443968,-3.164571227077675
4.664547898319903,0.9302865768979417,2.1889081991731913,-3.197395246573625
4.673850764088882,0.9838567920221019,2.156934246707455,-3.229792202835065
4.683689332009103,1.0384120254507012,2.1246363246791042,-3.261520689508738
4.69407345226361,1.0942578341079305,2.0920211177840167,-3.2923034955568578
4.705016030604689,1.1517334655984495,2.059098082828448,-3.321827600752966
4.716533365260673,1.2112095169785053,2.0258798068209187,-3.3497473101950996
4.728645460430458,1.273082361783824,1.9923823337189677,-3.3756918988008473
4.741376284048297,1.3377642635782776,1.9586254147309592,-3.3992793123833875
4.75475392668408,1.4056681339545543,1.9246326216071252,-3.420137448885819
4.768810608023625,1.4771861942342053,1.890431247118267,-3.43793416505243
4.7835824699659675,1.552662483864289,1.8560519054677427,-3.452416248213874
4.79910909480461,1.6323603086052492,1.821527742985604,-3.46345603455677
4.815432697890662,1.7164273107574182,1.7868931826400363,-3.4711021685396752
4.832596970998236,1.8048626468742306,1.7521821609546395,-3.475628479428468
4.850645597466978,1.8974923005057982,1.717425876160355,-3.4775727473632543
4.869620520472036,1.9939591651277015,1.6826501486867225,-3.4777561773885792
4.889560112123314,2.0937335461364057,1.6478725869128368,-3.4772756310487702
4.910497447584678,2.1961468521699734,1.6130998306023492,-3.4774645384795146
4.932458916106378,2.3004468637484052,1.578325185217554,-3.4798244448781266
4.955463384743862,2.40586822322223,1.5435269407687726,-3.485935793942051
4.979522066976084,2.511708227044903,1.508667582829352,-3.497361686560085
5.0046391492465325,2.617396894387577,1.4736939659637514,-3.515560170837307
5.030813118190408,2.7225520230115903,1.4385383642553782,-3.5418185126026964
5.058038638420523,2.8270138443414248,1.4031201791293513,-3.5772177384815387
5.0863087768639375,2.9308585748536706,1.3673480017445359,-3.622629416381958
5.115617362612475,3.0343942131825266,1.3311217075807162,-3.678741121532289
5.1459613047443,3.138144454491426,1.2943342963653934,-3.7461036300081623
5.177342749289214,3.242827402452759,1.2568732600653119,-3.825191912654462
5.209771023313742,3.3493352310574926,1.2186213409387672,-3.91647301665267
5.2432643756243165,3.458719706348277,1.1794566107722404,-4.0204761114276435
5.2778515726877995,3.5721871133940115,1.139251849657964,-4.137862567895502
5.313573443821739,3.691105058524847,1.097873223979009,-4.269496416209054
5.350484494406988,3.817023041580683,1.0551782598169184,-4.41651766436018
5.3886547248227945,3.9517086756909148,1.0110130831733166,-4.580422768190215
5.428171811579704,4.097201942210796,0.9652088554914144,-4.7631581635105436
5.469143831001812,4.255890824734971,0.917577273856309,-4.967234368375684
5.511702739249162,4.430612917176552,0.8679049301725522,-5.195869801492946
5.5560088684209274,4.62478879489743,0.8159462321576227,-5.453174879853043
5.6022567563699015,4.842593151772671,0.7614144833590923,-5.74438704982545
5.650682687887628,5.089166494783965,0.7039706128608378,-6.076162917877324
5.701574352835468,5.3708571785334085,0.6432089836820646,-6.456915855507948
5.755282924620802,5.69544437132297,0.5786398251269851,-6.897133704727947
5.812237368334032,6.072185548040681,0.5096684880797056,-7.409463650637914
5.872959223814439,6.511253908646501,0.4355738515733264,-8.007965679671686
5.938071762900904,7.021440349658308,0.35549419477660954,-8.704974254713227
6.008286166397487,7.603425946281723,0.26844445222947727,-9.501815161454061
6.084320425860304,8.233171084716977,0.17342630061493663,-10.365749203646555
6.166652136707474,8.829292366164395,0.06976880857847108,-11.184513462918263
6.254945060369118,9.219026091562434,-0.04207632605071156,-11.71873064069741
6.347135321284743,9.189686053407444,-0.15926363245768566,-11.673512177815816
6.439032181818817,8.701943586820825,-0.2759987542358438,-10.995384925904201
6.526051617687025,7.979895580211243,-0.3859526034948858,-9.99597856488029
6.605850573489137,7.261010633087956,-0.4859123891436887,-9.003156694646462
6.678460679820017,6.641663768812987,-0.5759439560901534,-8.14836964626704
6.744877317508147,6.130690016484192,-0.6574276525528238,-7.442482284933627
6.806184217672989,5.711010115227712,-0.73185247540216,-6.8612548316300845
6.863294318825266,5.363201479300962,-0.8004650237184608,-6.377684487477665
6.916926333618276,5.071209271093565,-0.8642418685932375,-5.969691854625749
6.967638426329212,4.822764808460235,-0.923938787139495,-5.620588418880632
7.015866074413815,4.608647416478176,-0.9801446713283013,-5.318007941156843
7.0619525485785966,4.421887544076534,-1.0333247507398697,-5.052789900521192
7.106171424019362,4.25713654061528,-1.0838526497450816,-4.8181101767994985
7.148742789425515,4.110207303807107,-1.1320337515130765,-4.60885615361507
7.189844862463586,3.977747083181864,-1.178122313049227,-4.421187698818295
7.229622333295405,3.8570051290853793,-1.22233419003741,-4.252228745788247
7.268192384586259,3.745667483313798,-1.2648564774952926,-4.099847582383776
7.305649059419397,3.6417401424192475,-1.3058549533191304,-3.962495773619558
7.34206646084359,3.5434685292381625,-1.345479911055326,-3.83908414052776
7.377501146135971,3.449285848625831,-1.3838707524606035,-3.728880023416503
7.41199400462223,3.3577858579686524,-1.4211595526947685,-3.631414207527901
7.445571863201916,3.2677170914541978,-1.4574736947700475,-3.5463893504265505
7.478249034116458,3.177995736725387,-1.492937588274313,-3.4735853089084507
7.510028991483712,3.0877332528263266,-1.5276734413633974,-3.4127609181873044
7.540906324011975,2.996272686893017,-1.5618010505452704,-3.363556566990421
7.570869050880905,2.9032250942344975,-1.5954366162151745,-3.325406730101201
7.59990130182325,2.8084955151621385,-1.6286906835161865,-3.2974751660445714
7.6279862569748715,2.7122878732547124,-1.6616654351766322,-3.278626081743032
7.655109135707419,2.6150809338062713,-1.6944516959940625,-3.2674408909048616
7.681259945045482,2.5175731771485994,-1.7271261049031112,-3.2622822485143916
7.706435676816968,2.420601835971495,-1.7597489273882552,-3.261396734851365
7.730641695176683,2.3250480605958312,-1.792362894736769,-3.2630383120031943
7.753892175782641,2.23174375217473,-1.8249932778568008,-3.2655899789902243
7.776209613304388,2.1413947231834145,-1.857649177646703,-3.2676627067773425
7.7976235605362225,2.054530024456519,-1.8903258047144764,-3.268157897853867
7.818168860780788,1.9714805413733782,-1.923007383693015,-3.2662893306539846
7.8378836661945215,1.892383737577404,-1.9556702769995549,-3.261569354128812
7.856807503570296,1.8172074275463155,-1.9882859705408429,-3.253769613094059
7.8749795778457585,1.7457841780346328,-2.0208236666717836,-3.2428682041013452
7.892437419626105,1.677848832191419,-2.053252348712797,-3.2289937273501588
7.909215907948019,1.6130737161879747,-2.0855422859862984,-3.2123736745029685
7.925346645109898,1.5510983887609053,-2.117666022731328,-3.193291307645404
7.940857628997507,1.4915527289004555,-2.149598935807782,-3.1720524722326497
7.9557731562865115,1.4340734878636692,-2.1813194605301085,-3.148961958019702
7.970113891165148,1.3783151745160915,-2.2128090801103055,-3.124308032565929
7.983897042910309,1.3239564355720717,-2.244052160435965,-3.098353413121494
7.99713660726603,1.2707030972898878,-2.2750356945671797,-3.0713309783118437
8.009843638238928,1.2182888891019534,-2.305749004350298,-3.0434427570900944
8.022026527129947,1.1664746670112707,-2.336183431921199,-3.014861037193757
8.03369127380006,1.1150467510851283,-2.3663320422931364,-2.985730732856867
8.044841741310911,1.0638148142370625,-2.396189349621705,-2.956172406046383
8.055479889453283,1.0126096179450699,-2.425751073682169,-2.9262855361448614
8.065605985632732,0.96128078403626,-2.4550139290436173,-2.896151782164408
8.075218793473095,0.9096947151857466,-2.4839754468652613,-2.8658380873258147
8.084315740624952,0.8577327240542021,-2.5126338277385196,-2.835399547655549
8.092893067865493,0.8052893960480423,-2.540987823215075,-2.8048820129207512
8.100945961825973,0.7522711885051401,-2.569036643344283,-2.774324416994347
8.108468673711025,0.6985952557632629,-2.5967798875142263,-2.743760851219201
8.115454626268658,0.6441884821424732,-2.6242174960264184,-2.713222402645719
8.121896511090084,0.5889867012809105,-2.6513497200528757,-2.682738782082494
8.127786378102893,0.5329340790607102,-2.6781771078737004,-2.652339766748726
8.133115718893501,0.4759826375758144,-2.704700505541188,-2.622056480314021
8.13787554526926,0.4180918985935304,-2.730921070344328,-2.5919225301535413
8.142056464255196,0.35922862635079805,-2.7568402956458633,-2.5619750183119865
8.145648750518705,0.29936665106931526,-2.782460045828983,-2.5322554393212293
8.148642417029398,0.23848675614333997,-2.8077826002221955,-2.5028104748746554
8.151027284590832,0.17657661349183526,-2.832810704970942,-2.473692692555888
8.15279305072575,0.11363075305723924,-2.8575476318965007,-2.4449611534214126
8.153929358256322,0.04965055388563347,-2.881997243430715,-2.4166819312787315
8.15442586379518,-0.015355754341597708,-2.9061640627435024,-2.3889285449923645
8.154272306251762,-0.08137308901233915,-2.930053348193426,-2.361782304080167
8.15345857536164,-0.1483795197420647,-2.9536711712342276,-2.3353325672096394
8.151974780164219,-0.21634628769084244,-2.977024496906324,-2.309676912934571
8.14981131728731,-0.2852378441838037,-3.00012126603567,-2.2849212220829807
8.146958938845472,-0.3550119121770826,-3.0229704782564997,-2.2611796715655013
8.143408819723701,-0.4256195724809194,-3.045582274972155,-2.238574639959292
8.139152623998893,-0.4970053750179008,-3.067968021371748,-2.2172365259708666
8.134182570248713,-0.5691074737885844,-3.0901403866314565,-2.197303481723715
8.128491495510827,-0.6418577826752581,-3.1121134214486936,-2.178921063685292
8.122072917684076,-0.7151821477756805,-3.1339026320855465,-2.1622418048787457
8.114921096206318,-0.7890005306599742,-3.155525050134334,-2.147424712760914
8.107031090899719,-0.8632271958197362,-3.176999297261943,-2.1346346977435893
8.098398818941522,-0.937770894657776,-3.198345644239379,-2.1240419377570907
8.089021109994944,-1.012535037671685,-3.21958606361695,-2.1158211844861734
8.078895759618227,-1.0874178460291222,-3.240744275461812,-2.110151016946389
8.068021581157936,-1.1623124735243868,-3.2618457856312757,-2.107213047927756
8.056398456422691,-1.2371070899452723,-3.282917916110553,-2.107191088539566
8.044027385523238,-1.3116849171622664,-3.3039898269959487,-2.1102702756847385
8.030910536351616,-1.385924209771965,-3.325092529752796,-2.116636166822952
8.017051294253896,-1.4596981728752887,-3.3462588914210256,-2.1264738059038146
8.002454312525144,-1.532874810541951,-3.367523629480064,-2.1399667639234052
7.987125564419724,-1.605316699701217,-3.3889232971192977,-2.1572961572402045
7.971072397422712,-1.6768806856040417,-3.4104962586917,-2.1786396466403537
7.9543035905666715,-1.7474174966250926,-3.432282655158103,-2.204170420227443
7.93682941560042,-1.8167712780192509,-3.4543243593603776,-2.2340561635875793
7.918661702820228,-1.884779046321094,-3.4766649209962535,-2.2684580214043675
7.8998139123570175,-1.9512700683814779,-3.4993495012102973,-2.307529555827664
7.880301211673203,-2.016065171572503,-3.522424796768574,-2.3514157084903102
7.860140559957478,-2.078975994453671,-3.5459389538534767,-2.4002517751719186
7.839350800012942,-2.1398041901603695,-3.569941471605196,-2.4541624047772834
7.817952758111338,-2.1983405979197883,-3.5944830956529685,-2.5132606375703515
7.795969352132141,-2.254364401371034,-3.619615702028672,-2.5776470015115867
7.77342570811843,-2.30764229569814,-3.645392172043788,-2.6474086900963623
7.750349285161449,-2.3579276888879632,-3.6718662589447515,-2.722618850266873
7.726770008272569,-2.4049599655883958,-3.6990924474474203,-2.803336014715091
7.702720408616686,-2.448463844933497,-3.7271258075945712,-2.8896037191066415
7.67823577016735,-2.4881488661712474,-3.7560218447856375,-2.981450351271802
7.653354281505638,-2.5237090378175453,-3.7858363482983557,-3.078889285992602
7.628117191127462,-2.5548226872122317,-3.8166252411582815,-3.1819193653367255
7.602568964255339,-2.581152547641861,-3.8484444348116487,-3.2905257901141343
7.5767574387789205,-2.6023461195530557,-3.88134969271279,-3.4046814923942
7.55073397758339,-2.6180363408543217,-3.915396507636732,-3.5243490613906263
7.524553614174847,-2.6278425991214367,-3.9506399982506384,-3.649483294460887
7.498275188183633,-2.6313721161969488,-3.987134831195247,-3.780034440259428
7.471961467021663,-2.628221734155575,-4.024935175597841,-3.9159521906197643
7.445679249680108,-2.617980132481302,-4.064094697504039,-4.057190459335291
7.419499448355295,-2.600230512088711,-4.104666602097392,-4.203712956609325
7.393497143234408,-2.5745537963943064,-4.146703731663486,-4.355499523162249
7.367751605270465,-2.540532428838608,-4.190258726895109,-4.512553121351916
7.3423462809820785,-2.497754898755945,-4.235384258108628,-4.674907282485968
7.317368731994519,-2.445821216096365,-4.282133330933488,-4.842633665078208
7.292910519833556,-2.3843496990276845,-4.33055966758427,-5.015849165735002
7.269067022843279,-2.3129856643439624,-4.38071815924162,-5.194721708620265
7.245937166199839,-2.23141295865318,-4.432665376327822,-5.3794733697476715
7.223623036613308,-2.139369795300941,-4.486460110025299,-5.5703787926203345
7.202229338660298,-2.0366711468752965,-4.542163897951503,-5.767755812224836
7.181862627191545,-1.9232410904297605,-4.599841456073751,-5.9719436739425475
7.162630216287247,-1.7991601374376094,-4.659560892813176,-6.183262021548786
7.1446386149128704,-1.6647348200298067,-4.721393513028664,-6.401940734401831
7.127991266712573,-1.5205996703164588,-4.785412920372682,-6.628006617470426
7.112785270009408,-1.3678649263760205,-4.851692986547386,-6.861108169581741
7.099106620745648,-1.2083257363626811,-4.920304068243203,-7.100255474818506
7.087023363382021,-1.044747493624402,-4.991306622991388,-7.3434522591335565
7.076575888445777,-0.881231179672755,-5.064741145582723,-7.587209262537736
7.067763576649049,-0.7236313872915132,-5.1406132382081005,-7.825966856831982
7.060527262776134,-0.5799333399523536,-5.21887290677642,-8.051540557889528
7.05472792937661,-0.460385480149562,-5.299388312355315,-8.25284820243724
7.050124074575114,-0.37705969299111286,-5.381916794379688,-8.416345971729575
7.046353477645203,-0.34248485913185445,-5.466080254096983,-8.527642990403146
7.042928629053884,-0.36726891967747,-5.551356684001015,-8.574416648830502
7.039255939857109,-0.4572878126611283,-5.63710085048932,-8.54988183196166
7.034683061730498,-0.6117172726943237,-5.722599668808937,-8.455158301132109
7.028565889003555,-0.8231152500275977,-5.807151251820258,-8.298995901078841
7.020334736503279,-1.0796109302256511,-5.890141210831047,-8.094854549019944
7.009538627201023,-1.3679660090626402,-5.971089756321246,-7.857005665174143
6.995858967110396,-1.676053453684665,-6.049659812972987,-7.597536645993368
6.97909843257355,-1.9940951601652541,-6.125635179432921,-7.325037459068345
6.959157480971897,-2.3148412886446663,-6.1988855540236045,-7.0446489280191615
6.9360090680854505,-2.63318917508055,-6.2693320433037965,-6.758781921263881
6.909677176334645,-2.945648558041918,-6.336919862516435,-6.467974805818214
6.880220690754226,-3.2498637472666942,-6.401599610574618,-6.171630565929324
6.847722053281559,-3.544259558766113,-6.463315916233911,-5.8685639556700355
6.812279457693898,-3.8278072711850375,-6.522001555790611,-5.557375458569023
6.774001384982047,-4.099883300127344,-6.577575310376301,-5.236693203867533
6.733002551980774,-4.360191279947211,-6.629942242414977,-4.905321960369791
6.689400639181302,-4.608723372444895,-6.6789954620186744,-4.562329038204219
6.643313405456853,-4.845742677048929,-6.724618752400716,-4.207088119768769
6.594855978686364,-5.071773535678314,-6.766689633598404,-3.8392959372623325
6.544138243329581,-5.287589895339174,-6.8050825929710275,-3.4589734482272902
6.491262344376189,-5.494193770485772,-6.8396723274533,-3.066462324281404
6.436320406671331,-5.692776297465091,-6.870336950696114,-2.662428799874711
6.37939264369668,-5.884652819688764,-6.896961238694861,-2.247890082819601
6.320546115499792,-6.071160686294139,-6.919440139523057,-1.8242836520515793
6.2598345086368505,-6.253503829154296,-6.937682976043573,-1.3936068667234371
6.197299470345308,-6.432522029453385,-6.9516190447108075,-0.9586627075208565
6.132974250050774,-6.6083569811438485,-6.961205671786016,-0.523454262342361
6.066890680239335,-6.779987522861952,-6.966440214409439,-0.0937673757264767
5.999090805010716,-6.944626269994423,-6.967377888166704,0.32205176150531345
5.929644542310771,-7.097035089918907,-6.964157370551651,0.712216014649365
5.858674191411582,-7.228962141039095,-6.957035210405158,1.0608189155907572
5.786384570001191,-7.329137907128654,-6.94642702124925,1.3480020051471417
5.7130931909299045,-7.38447887393617,-6.932947001197779,1.5519079495623616
5.6392484021905425,-7.382984258296402,-6.9174279217021555,1.6531060467759913
5.565418559607578,-7.31784215942474,-6.900896861234395,1.6407545078211092
5.492240138013331,-7.190762466435647,-6.884489316156184,1.5175781385707119
5.420332513348975,-7.012131836416428,-6.869313534770477,1.3001192176661813
5.35021119498481,-6.797549813852987,-6.856312342593815,1.01357303616114
5.28223569684628,-6.563001335604556,-6.846176612232203,0.6844808026521431
5.216605683490235,-6.3213812616177725,-6.839331804205682,0.3353005468413783
5.1533918708740565,-6.081322465949111,-6.835978798737268,-0.01764875190344195
5.092578646214565,-5.847653093463414,-6.836155286256303,-0.36377511049985023
5.034102115279931,-5.622459045482811,-6.839793037361301,-0.6968108572142222
4.977877524825103,-5.406111198392871,-6.846761145933443,-1.0133779139246393
4.923816412841174,-5.198032064505355,-6.856894925072689,-1.311882905883854
4.87183609219612,-4.997197011882892,-6.870013754131528,-1.5917748662403977
4.821864122077291,-4.802435475127519,-6.885931502793932,-1.853085252138985
4.773839767326016,-4.612599999380537,-6.904462355315322,-2.096158594112042
4.727713767332211,-4.426653896077017,-6.925423941256442,-2.321502355269278
4.68344722837144,-4.2437108663215595,-6.948638964809135,-2.5297077032461317
4.641010119708224,-4.063047098709746,-6.973936041841596,-2.721410739068706
4.600379648721127,-3.88409799728739,-7.001150149232283,-2.8972757291772457
4.561538668748253,-3.7064466040186517,-7.030122906524056,-3.0579894657762807
4.524474202708066,-3.5298077882473278,-7.060702801181819,-3.204260518202736
4.489176124825593,-3.354010557237263,-7.092745406363846,-3.3368199308034763
4.4556360192532205,-3.178979868710554,-7.126113605671881,-3.456421589081347
4.423846220566115,-3.0047187780797744,-7.160677821562694,-3.5638414603043973
4.393799032785317,-2.83129144165652,-7.196316236165738,-3.659875485629865
4.365486118368752,-2.658807314640179,-7.232914991022037,-3.7453362184702077
4.33889804522235,-2.487406768884587,-7.270368353206739,-3.821048464579569
4.314023977533504,-2.3172482778671757,-7.308578837852535,-3.8878442417336836
4.290851494754832,-2.1484972585377604,-7.347457280269872,-3.946557377322695
4.269366522169454,-1.9813166144378946,-7.386922854043099,-3.9980180238584113
4.249553356025075,-1.8158589892071633,-7.426903034281683,-4.043047310342319
