th1 (rad),w1 (rad/s),th2 (rad),w2 (rad/s),a1 (rad/s^2),a2 (rad/s^2)
2.2754569018911392,-1.205160224040283,4.082059825865853,-3.1155655647125755,-2.0428149122025623,6.027293881374742
2.2634052996507363,-1.2255883731623087,4.050904170218727,-3.055292625898828,-2.3646915536390236,5.757624224410103
2.251149415919113,-1.249235288698699,4.020351243959739,-2.997716383654727,-2.672089651431038,5.488824510389141
2.238657063032126,-1.2759561852130095,3.990374080123192,-2.9428281385508357,-2.965415163101847,5.2195864217072865
2.225897501179996,-1.305610336844028,3.9609457987376837,-2.890632274333763,-3.2450333401216422,4.94861738250041
2.2128413978115558,-1.3380606702452444,3.9320394759943462,-2.841146100508759,-3.5112680609472267,4.674648222589525
2.1994607911091033,-1.3731733508547168,3.9036280149892586,-2.7943996182828634,-3.764401905201353,4.396440068766112
2.185729057600556,-1.4108173699067303,3.87568401880643,-2.7504352175952023,-4.004676681086277,4.112790645541934
2.1716208839014888,-1.4508641367175932,3.848179666630478,-2.7093073111397827,-4.232294156163598,3.822540130259043
2.1571122425343128,-1.4931870782792291,3.8210865935190803,-2.6710819098371923,-4.447416774261523,3.5245766781003867
2.1421803717515204,-1.5376612460218444,3.7943757744207085,-2.6358361430561885,-4.650168169635558,3.2178417102567365
2.126803759291302,-1.5841629277181999,3.7680174129901465,-2.6036577259536213,-4.840633314637298,2.901335042445762
2.11096213001412,-1.6325692608645728,3.7419808357306104,-2.574644375529164,-5.018858159943553,2.574119920265467
2.0946364374054744,-1.6827578424640084,3.716234391975319,-2.548903176326509,-5.184848647650696,2.2353280215879403
2.0778088589808346,-1.7346063289405154,3.6907453602120537,-2.52654989611063,-5.3385689979282525,1.88416448342046
2.0604627956914294,-1.787992018919798,3.6654798612509474,-2.507708251276425,-5.479939190044821,1.5199130104040526
2.0425828755022315,-1.8427914108202461,3.640402778738183,-2.4925091211723847,-5.6088315789548595,1.1419411233699905
2.024154961394029,-1.8988797266097948,3.615477687526459,-2.4810897099386846,-5.725066609745149,0.7497056080723469
2.0051661641279312,-1.9561303927072462,3.5906667904270724,-2.473592653857961,-5.828407614533787,0.342758225249662
1.9856048602008587,-2.0144144688525842,3.5659308638884926,-2.4701650716054644,-5.918554700325881,-0.07924825762486047
1.965460715512333,-2.073600015855843,3.541229213172438,-2.470957554181713,-5.9951377622851805,-0.5165536563906307
1.9447247153537746,-2.133551393478695,3.516519637630621,-2.4761230907456193,-6.057708685303692,-0.9692835337104467
1.9233892014189875,-2.1941284803317322,3.491758406723165,-2.485815926082724,-6.105732828055088,-1.437441901560371
1.9014479166156701,-2.255185808612283,3.4669002474623376,-2.5001903450983276,-6.138579918293174,-1.920903449109878
1.8788960585295473,-2.3165716077952148,3.441898344011354,-2.5193993795894265,-6.155514526343661,-2.4194053117382985
1.8557303424515952,-2.3781267530586514,3.41670435021546,-2.5435934327068095,-6.155686325786585,-2.93253843608106
1.8319490749210088,-2.4396836163165174,3.391268415888392,-2.5729188170676203,-6.138120396344299,-3.459738646258968
1.8075522387578435,-2.5010648202799604,3.365539227717716,-2.60751620353021,-6.1017078738666335,-4.000277578966115
1.782541590555044,-2.5620818990186267,3.3394640656824137,-2.6475189793198712,-6.045197305622383,-4.553253730780852
1.7569207715648576,-2.6225338720748503,3.312988875889215,-2.69305151662768,-5.967187125028872,-5.117583950452601
1.730695432844109,-2.682205743325139,3.2860583607229383,-2.744227356132206,-5.866119717090421,-5.691995812017979
1.7038733754108577,-2.7408669404960433,3.258616087161616,-2.8011473142523857,-5.7402776020852375,-6.27502142072846
1.6764647060058973,-2.7982697165168955,3.230604614019092,-2.8638975284596704,-5.5877823174886725,-6.8649933313510365
1.6484820088407284,-2.854147539691782,3.2019656387344955,-2.9325474617731806,-5.406596622775194,-7.460043394748147
1.6199405334438106,-2.908213505919534,3.1726401641167636,-3.007147895720662,-5.194530683449655,-8.058105489748884
1.5908583983846152,-2.9601588127540306,3.142568685159557,-3.0877289506181507,-4.949252902972483,-8.656923237668453
1.561256810257075,-3.0096513417837554,3.1116913956533754,-3.174298182994835,-4.668306056362148,-9.254063929226449
1.5311602968392375,-3.056334402347377,3.079948413823427,-3.2668388222870997,-4.349129328066048,-9.846940009126968
1.5005969528157637,-3.0998256956280374,3.047280025600556,-3.3653082223783692,-3.9890867589430075,-10.432839551581823
1.4695986958594833,-3.1397165632174677,3.0136269433767726,-3.4696366178941873,-3.5855024518977427,-11.008967208527107
1.4382015302273086,-3.175571587736445,2.978930577197831,-3.579726289979458,-3.135702661725664,-11.572497108190122
1.406445814349944,-3.2069286143537017,2.9431333142980365,-3.6954512610613595,-2.637064591749416,-12.12063911183649
1.374376528206407,-3.233299260271196,2.906178801687423,-3.816657652179724,-2.0870713296407333,-12.650719688802482
1.342043535603695,-3.254169973567603,2.8680122251656255,-3.943164849067749,-1.4833718729825904,-13.16027843470886
1.309501835868019,-3.269003692297429,2.828580576674948,-4.0747676334148375,-0.8238446230388934,-13.647180930020241
1.2768117989450447,-3.277242138527818,2.7878329003407996,-4.21123944271504,-0.10666207251156859,-14.10974821763028
1.2440393775597665,-3.2783087592529334,2.745720505913649,-4.352336924891342,0.6696462996683897,-14.54690267985882
1.2112562899672372,-3.2716122962562495,2.7021971366647355,-4.497805951689931,1.50613665202899,-14.958329539285796
1.1785401670046747,-3.2565509297359596,2.657219077147836,-4.647389247082788,2.403403362020321,-15.344652628600263
1.145974657707315,-3.232516896115756,2.6107451846770084,-4.800835773368791,3.3615466239626413,-15.707622517716075
1.1136494887461574,-3.1989014298761296,2.5627368269433206,-4.957911998545952,4.380160555963032,-16.05031460396384
1.081660474447396,-3.1550998243164994,2.5131577069578612,-5.11841514458559,5.4583474398888665,-16.37733441125387
1.0501094762042311,-3.1005163499176107,2.4619735555120053,-5.282188488698129,6.594763399711343,-16.695027130321993
1.019104312705055,-3.0345687159204973,2.409151670625024,-5.449138760001349,7.787699861147996,-17.011688328078822
0.98875862554585,-2.9566917173090173,2.3546602830250105,-5.619255643282137,9.035203263364107,-17.337772602924023
0.9591917083727599,-2.8663396846753764,2.298467726592189,-5.792633369311377,10.335232316061507,-17.68609638648542
0.9305283115260061,-2.762987361514761,2.2405413928990754,-5.969494333176232,11.685846978724154,-18.072029320190808
0.9028984379108586,-2.6461288917275194,2.180846449567313,-6.15021462637814,13.08541520678293,-18.51366421167312
0.8764371489935834,-2.51527473965969,2.1193443033035315,-6.335351268494871,14.532810470945009,-19.031945849076237
0.8512844015969865,-2.36994663495024,2.0559907906185826,-6.525670726985633,16.0275517379389,-19.65071916945771
0.8275849352474841,-2.209671117570851,1.9907340833487264,-6.72217791868021,17.569801970183423,-20.39661898801962
0.8054882240717756,-2.033973097869017,1.9235123041619242,-6.926144108560407,19.160080517834423,-21.29865171816128
0.7851484930930854,-1.8423722926906727,1.8542508630763201,-7.13913062574202,20.798440132490295,-22.387187864526883
0.7667247701661787,-1.6343878913657697,1.7828595568188998,-7.363002504387288,22.482678122637815,-23.691846751280885
0.7503808912525209,-1.4095611101393914,1.709229531775027,-7.599920971900097,24.204839290550208,-25.23733494915851
0.736285280151127,-1.1675127172338893,1.633230322056026,-7.852294321391683,25.94474270806033,-27.03557632603688
0.7246101529787882,-0.908065290153286,1.5547073788421093,-8.12265008465205,27.658419641049523,-29.07128359934305
0.7155295000772554,-0.6314810937427907,1.4734808779955888,-8.413362920645481,29.25812685532935,-31.27635210311987
0.7092146891398274,-0.3388998251894972,1.389347248789134,-8.72612644167668,30.5792613334018,-33.486396638334426
0.7058256908879325,-0.03310721185547916,1.3020859843723673,-9.060990408060023,31.32948397561626,-35.37224676663544
0.7054946187693777,0.28018762790068347,1.211476080291767,-9.414712875726378,31.021353944326727,-36.346536156827106
0.7082964950483845,0.5904011673439508,1.1173289515345033,-9.77817823729465,28.913136084938998,-35.47616135362538
0.714200506721824,0.8795325281933408,1.0195471691615567,-10.132939850830905,24.040076476415695,-31.508940737433466
0.7229958320037574,1.1199332929574979,0.9182177706532477,-10.448029258205239,15.501319911187977,-23.236473986750816
0.7341951649333324,1.2749464920693776,0.8137374780711953,-10.680393998072747,3.141701500075577,-10.384145950853199
0.7469446298540261,1.3063635070701334,0.7069335380904679,-10.784235457581278,-11.657777668786673,5.3515604772105965
0.7600082649247274,1.1897857303822668,0.5990911835146551,-10.730719852809173,-26.05276551988781,20.41685122552024
0.77190612222855,0.9292580751833887,0.49178398498656334,-10.52655134055397,-37.2421167852637,31.40166947622989
0.781198702980384,0.5568369073307518,0.38651847158102365,-10.21253464579167,-44.08579895508133,37.12142156308922
0.7867670720536915,0.11597891777993846,0.28439312512310694,-9.841320430160778,-47.17199730316186,38.600359502273335
0.7879268612314908,-0.35574105525168015,0.18597992082149917,-9.455316835138044,-47.76789540423216,37.63150334834407
0.784369450678974,-0.8334200092940018,0.09142675247011872,-9.079001801654604,-46.98168789205974,35.695251363343786
0.776035250586034,-1.3032368882145993,0.0006367344535726793,-8.722049288021166,-45.52041660331535,33.690706944784715
0.763002881703888,-1.7584410542477529,-0.08658375842663898,-8.38514221857332,-43.760631477127845,32.06452923285443
0.7454184711614105,-2.1960473690190314,-0.17043518061237217,-8.064496926244775,-41.876172529660785,30.994284342509935
0.7234579974712202,-2.6148090943156395,-0.2510801498748199,-7.754554082819676,-39.93426263314827,30.51732245166365
0.6973099065280638,-3.014151720647122,-0.32862569070301667,-7.44938085830304,-37.95291747632261,30.603417901982677
0.6671683893215926,-3.3936808954103483,-0.40311949928604707,-7.143346679283213,-35.93201939465499,31.191568372841303
0.6332315803674892,-3.753001089356898,-0.4745529660788792,-6.8314309955548,-33.8692456100681,32.20756782007495
0.5957015694739202,-4.091693545457579,-0.5428672760344272,-6.50935531735405,-31.767786667128554,33.57224397468976
0.5547846340193444,-4.4093714121288645,-0.6079608292079677,-6.173632877607153,-29.63963398619675,35.20558334244381
0.5106909198980558,-4.705767751990832,-0.6696971579840392,-5.821577044182715,-27.50639748841562,37.0293139740252
0.4636332423781475,-4.980831726874988,-0.7279129284258663,-5.451283904442462,-25.39867532086876,38.969108141972164
0.4138249251093976,-5.234818480083676,-0.7824257674702909,-5.061592823022741,-23.35454663497285,40.956832318612314
0.36147674030856086,-5.468363946433405,-0.8330416957005183,-4.652024499836617,-21.417555195097616,42.93288846957342
0.30679310084422684,-5.682539498384381,-0.8795619406988845,-4.222695615140883,-19.634461889304482,44.84849405954086
0.24996770586038303,-5.878884117277426,-0.9217888968502933,-3.774210674545474,-18.052993928381323,46.66765546786658
0.19117886468760875,-6.0594140565612395,-0.959531003595748,-3.3075341198668085,-16.719765887495942,48.36855406843516
0.13058472412199634,-6.226611715436199,-0.9926063447944161,-2.823848579182457,-15.67846696384847,49.944049796516374
0.06831860696763435,-6.383396385074684,-1.0208448305862408,-2.3244080812172934,-14.968278985153248,51.400972057904895
0.00448464311688751,-6.5330791749262165,-1.0440889113984138,-1.8103983606382443,-14.622284191413774,52.75775301771856
-0.060846148632374655,-6.679302016840354,-1.0621928950047963,-1.2828208304610587,-14.665294736783078,54.03967234876553
-0.1276391688007782,-6.825954964208185,-1.0750211033094068,-0.7424241069734033,-15.110003715161556,55.2703830862847
-0.19589871844286005,-6.9770550013598,-1.0824453443791409,-0.1897202761105563,-15.949479884979974,56.45726255488591
-0.26566926845645805,-7.1365498002096,-1.0843425471402464,0.3748523494383028,-17.142613322492352,57.566213333968314
-0.33703476645855407,-7.307975933434524,-1.0805940236458633,0.950514482777986,-18.587054769132184,58.47870008430404
-0.4101145257928993,-7.493846481125846,-1.0710888788180835,1.5353014836210264,-20.07202307929761,58.92089092775998
-0.48505299060415774,-7.694566711918823,-1.0557358639818732,2.1245103928986264,-21.204148339927016,58.35623072792125
-0.561998657723346,-7.906608195318093,-1.034490760052887,2.708072700177839,-21.31342433637204,55.85311128930018
-0.641064739676527,-8.119742438681813,-1.0074100330511087,3.266603813070841,-19.396786117500707,50.01166856275108
-0.7222621640633451,-8.31371029985682,-0.9747439949204002,3.766720498698352,-14.268369392106623,39.192232384610115
-0.8053992670619133,-8.456393993777887,-0.9370767899334167,4.1586428225444525,-5.184265109991893,22.425675336221172
-0.8899632069996922,-8.508236644877806,-0.8954903617079721,4.382899575906665,7.074720894369082,0.9745503985099541
-0.9750455734484703,-8.437489435934115,-0.8516613659489055,4.392645079891764,19.677874702764147,-20.916599803951847
-1.0594204678078114,-8.240710688906473,-0.8077349151499879,4.183479081852246,29.162062059457263,-38.07250754911283
-1.1418275746968762,-7.9490900683119,-0.7659001243314654,3.8027540063611176,33.832722353032,-47.8754381236401
-1.2213184753799953,-7.61076284478158,-0.7278725842678542,3.3239996251247166,34.36093860217847,-51.17845789090896
-1.297426103827811,-7.267153458759795,-0.694632588016607,2.812215046215627,32.42913494507456,-50.38192460058097
-1.3700976384154089,-6.94286210930905,-0.6665104375544507,2.3083958002098175,29.476337177949926,-47.60315568910069
-1.4395262595084994,-6.64809873752955,-0.6434264795523525,1.8323642433188105,26.353129911437538,-44.139384046378744
-1.506007246883795,-6.384567438415175,-0.6251028371191645,1.3909704028550232,23.456857877681838,-40.63531150295267
-1.5698529212679468,-6.149998859638356,-0.6111931330906143,0.9846172878254964,20.929928915072857,-37.357781478705164
-1.6313529098643305,-5.940699570487627,-0.6013469602123593,0.6110394730384447,18.793416427458514,-34.38655131678208
-1.6907599055692066,-5.752765406213042,-0.5952365654819749,0.2671739598706239,17.018247637391504,-31.71872053977214
-1.748287559631337,-5.582582929839127,-0.5925648258832686,-0.05001324552709746,15.558921469175484,-29.319930053455785
-1.8041133889297283,-5.426993715147372,-0.5930649583385397,-0.3432125460616553,14.36811775512908,-27.147748532024195
-1.858383326081202,-5.283312537596081,-0.5964970837991562,-0.6146900313818973,13.402321310567277,-25.161575305421913
-1.9112164514571628,-5.149289324490408,-0.6026439841129752,-0.8663057844361164,12.623462911229467,-23.32628824251235
-1.962709344702067,-5.023054695378113,-0.6113070419573363,-1.0995686668612399,11.998918232684325,-21.613105137109887
-2.012939891655848,-4.903065513051271,-0.6223027286259487,-1.3156997182323387,11.500919518873266,-19.999277247908818
-2.0619705467863607,-4.788056317862538,-0.6354597258082721,-1.5156924907114269,11.105834212060563,-18.46735278816759
-2.109851109964986,-4.676997975741933,-0.6506166507153864,-1.7003660185931029,10.793490724541655,-17.00433602015855
-2.1566210897224054,-4.569063068496516,-0.6676203109013175,-1.8704093787946885,10.54660966077336,-15.600877664745637
-2.2023117204073706,-4.463596971888783,-0.6863244046892644,-2.026418155442145,10.350347004850688,-14.250546661790162
-2.2469476901262584,-4.360093501840276,-0.7065885862436858,-2.1689236220600465,10.19193586187317,-12.949196104270946
-2.290548625144661,-4.258174143221544,-0.7282778224642863,-2.298415583102756,10.060407594782196,-11.694421110496888
-2.3331303665768766,-4.157570067273722,-0.7512619782953138,-2.415359794207725,9.946373480329157,-10.485101147664636
-2.3747060672496136,-4.058106332470431,-0.7754155762373911,-2.5202108056843713,9.841850593599085,-9.321018146853442
-2.4152871305743178,-3.95968782653444,-0.8006176842942349,-2.6134209871529057,9.740118845571686,-8.20254206604828
-2.454884008839662,-3.8622866380787233,-0.8267518941657639,-2.6954464078133884,9.635599216717793,-7.130376260250217
-2.4935068752204494,-3.7659306459115456,-0.8537063582438977,-2.7667501704158908,9.523745962770912,-6.1053556919384935
-2.531166181679565,-3.6706931862838363,-0.8813738599480566,-2.827803727335276,9.400947827853907,-5.128291553033106
-2.5678731135424036,-3.576683708005297,-0.9096518972214094,-2.879086642865607,9.264435086981466,-4.199856285387293
-2.6036399506224566,-3.4840393571354826,-0.9384427636500654,-2.92108520571948,9.112190596391184,-3.320503331513165
-2.6384803441938116,-3.392917451171571,-0.9676536157072602,-2.9542902390346115,8.942864013984652,-2.4904162705426387
-2.6724095187055275,-3.3034888110317246,-0.9971965180976062,-2.979194401740038,8.755689025556812,-1.7094823316243142
-2.7054444068158445,-3.2159319207761565,-1.0269884621150067,-2.996289225056281,8.550403836018393,-0.9772856465336314
-2.737603726023606,-3.130427882415973,-1.0569513543655695,-3.0060620815216175,8.327175414224245,-0.29311600955427947
-2.768908004847766,-3.0471561282737305,-1.0870119751807856,-3.0089932416171603,8.086528064583328,0.3440106499467227
-2.799379566130503,-2.966290847627897,-1.1171019075969573,-3.005553135117693,7.829276880419243,0.935323419798113
-2.829042474606782,-2.8879980788237045,-1.1471574389481343,-2.996199900919712,7.556466547875933,1.4822620568443403
-2.8579224553950193,-2.8124334133449453,-1.1771194379573313,-2.9813772803512686,7.269315842905102,1.9864395581129215
-2.8860467895284687,-2.7397402549158945,-1.206933210760844,-2.9615128847701393,6.969168019122745,2.4496036364808154
-2.9134441920776277,-2.670048574724667,-1.2365483396085453,-2.937016848405331,6.657447137156544,2.87359868140635
-2.9401446778248745,-2.6034741033531015,-1.2659185080925985,-2.9082808615912676,6.335620247900218,3.2603294179159628
-2.9661794188584056,-2.5401179008740993,-1.2950013167085113,-2.875677567412108,6.0051652203338035,3.6117271513382883
-2.991580597867147,-2.480066248670761,-1.3237580923826324,-2.839560295898725,5.66754390361512,3.9297192033241553
-3.0163812603538545,-2.42339080963461,-1.3521536953416198,-2.8002631038654835,5.324180234900944,4.216201906497259
-3.0406151684502007,-2.3701490072856006,-1.3801563263802745,-2.758101084800511,4.976442848869764,4.473017329028354
-3.064316658523057,-2.320384578796903,-1.4077373372282795,-2.7133709115102276,4.6256317109118505,4.701933743670626
-3.087520504311026,-2.2741282616877845,-1.4348710463433818,-2.6663515740735213,4.272968281251678,4.9046297346457255
-3.1102617869279037,-2.2313985788752677,-1.461534562084117,-2.617305276727064,3.919588719163719,5.0826817460318425
-3.1325757727166565,-2.1922026916836304,-1.4877076148513875,-2.5664784592667456,3.5665396519812935,5.237554812562049
-3.154497799633493,-2.1565372951638175,-1.5133723994440549,-2.514102911141125,3.2147760598054576,5.370596173592387
-3.176063172585131,-2.124389534565763,-1.5385134285554662,-2.4603969494052014,2.865160860866491,5.483031449241038
-3.197307067930789,-2.0957379259570983,-1.5631173980495183,-2.405566634912791,2.5184658218012856,5.575963050453911
-3.21826444719036,-2.0705532677390854,-1.5871730643986461,-2.349807004408252,2.17537345943779,5.650370498553642
-3.238969979867751,-2.0487995331447078,-1.6106711344427287,-2.293303299422716,1.8364796441330753,5.707112341671415
-3.259457975199198,-2.030434736703377,-1.633604167436956,-2.2362321760060015,1.5022966577667967,5.746929372813142
-3.279762322566232,-2.0154117701257093,-1.6559664891970158,-2.17876288227787,1.173256500965003,5.770448875105169
-3.2999164402674888,-2.0036792051160592,-1.6777541180197946,-2.1210583935268184,0.8497142831540254,5.778189642368924
-3.319953232318649,-1.9951820622845189,-1.6989647019550627,-2.063276497103129,0.5319515650303044,5.770567546352634
-3.339905052941494,-1.989862546634216,-1.719597466926094,-2.0055708216396027,0.22017955562346536,5.747901444813645
