th1 (rad),w1 (rad/s),th2 (rad),w2 (rad/s),a1 (rad/s^2),a2 (rad/s^2)
3.965455590252363,1.0498558855735511,4.799257463636934,0.5123979570145459,5.530826564486708,5.229802054849593
3.9759541491080985,1.1051641512184183,4.804381443207079,0.5646959775630419,5.682060081742621,5.017285346763384
3.9870057906202825,1.1619847520358444,4.810028402982709,0.6148688310306758,5.842692846161693,4.790265462753952
3.998625638140641,1.2204116804974614,4.816177091293016,0.6627714856582153,6.012594040051447,4.548113053906433
4.0108297549456156,1.280537620897976,4.822804806149598,0.7082526161972796,6.191643246165029,4.290158857955067
4.023635131154595,1.3424540533596263,4.829887332311571,0.7511542047768303,6.379733409898018,4.015694364888714
4.0370596716881915,1.4062513874586064,4.83739887435934,0.7913111484257174,6.576774239226907,3.7239731440599506
4.051122185562778,1.4720191298508756,4.845311985843597,0.8285508798663169,6.7826960632929465,3.4142130019113863
4.065842376861287,1.539846090483805,4.85359749464226,0.8626930098854307,6.99745414561133,3.0855991849504476
4.081240837766125,1.6098206319399182,4.862224424741115,0.8935490017349352,7.221033410853555,2.737288904228354
4.097339044085524,1.6820309660484538,4.871159914758464,0.9209218907772188,7.453453490566369,2.3684175413474424
4.114159353746009,1.7565655009541175,4.880369133666236,0.9446060661906932,7.694773917008525,1.9781070102735416
4.13172500875555,1.8335132401242027,4.889815194328143,0.9643871362934286,7.9450991872867505,1.5654769054393463
4.150060141156793,1.91296423199707,4.899459065691078,0.9800419053478221,8.20458327099758,1.1296592804886578
4.169189783476764,1.995010064707046,4.909259484744556,0.9913384981527087,8.473432928523714,0.6698181948829617
4.1891398841238345,2.079744393992283,4.919172869726083,0.9980366801015383,8.751908923615861,0.18517556630709106
4.2099373280637575,2.167263483228442,4.929153236527098,0.9998884357646093,9.040323825598795,-0.3249545860489221
4.231609962896042,2.25766672148443,4.939152120884744,0.9966388899041201,9.33903456720322,-0.8611206777101221
4.254186630110886,2.351057067156462,4.949118509783785,0.9880276831270188,9.648427206155533,-1.4236730368692851
4.277697200782451,2.4475413392180174,4.958998786615055,0.973790952758326,9.968890371418642,-2.0126831307620803
4.302172614174631,2.547230242932204,4.9687366961426385,0.9536641214507051,10.30077258301985,-2.627835542279523
4.327644916603953,2.6502379687624025,4.9782733373571455,0.9273857660279099,10.64431692950222,-3.2682833283597557
4.354147296291577,2.7566811380574245,4.987547195017425,0.8947029327443123,10.999564376082866,-3.9324543398466036
4.381714107672152,2.8666767818182533,4.996494224344867,0.8553783893458463,11.366214182623365,-4.617792266585071
4.410380875490334,2.980338923644487,5.005048008238326,0.8092004666799956,11.743426518666741,-5.3204116138545965
4.4401842647267795,3.0977731888311544,5.013140012905126,0.7559963505414496,12.129548511617168,-6.034640781617386
4.471161996615091,3.219068673947326,5.02069997641054,0.6956499427252758,12.521741114681783,-6.752422664613393
4.5033526833545645,3.3442860850941436,5.0276564758377935,0.6281257160791419,12.915481411622071,-7.462539401782251
4.536795544205506,3.4734408992103645,5.033937732998585,0.5535003220613194,13.303915460137457,-8.14963037843474
4.57152995319761,3.606480053811739,5.0394727362191984,0.47200401827697197,13.677044495593586,-8.792986257362159
4.607594753735727,3.743250498767675,5.044192776401968,0.38407415570335035,14.020748957944509,-9.365136515038172
4.645027258723403,3.88345798834712,5.048033517959002,0.2904227905529686,14.315700536025172,-9.830318455430588
4.683861838606875,4.026614993707372,5.050937745864532,0.19211960599866273,14.536295615010367,-10.143041122441923
4.724127988543948,4.171977949857475,5.0528589419245185,0.0906891947742435,14.649877282678919,-10.247156257118396
4.765847768042523,4.318476722684265,5.053765833872261,-0.01178236779694046,14.616699911616344,-10.076122693016412
4.809032535269366,4.464643721800428,5.0536480101942916,-0.11254359472710458,14.39130045027276,-9.555454844921034
4.85367897248737,4.6085567263031555,5.05252257424702,-0.20809814317631492,13.926078207038751,-8.608538505131005
4.899764539750402,4.747817508373543,5.0504415928152575,-0.29418352822762495,13.17775925856989,-7.166798348396277
4.947242714834138,4.879595100959242,5.047499757532981,-0.3658515117115877,12.116771581044391,-5.184230858015787
4.99603866584373,5.000762816769686,5.043841242415866,-0.41769382029174557,10.738211121415098,-2.654325094963352
5.046046294011426,5.108144927983837,5.039664304212948,-0.44423707124137907,9.071282801911433,0.3752600679632184
5.0971277432912645,5.198857756002951,5.035221933500535,-0.4404844705617469,7.182816077167564,3.796808747866076
5.149116320851294,5.270685916774627,5.030817088794917,-0.4025163830830861,5.171122524138456,7.451068944944453
5.201823180019041,5.322397142016012,5.026791924964086,-0.3280056936336416,3.1498449330474405,11.150888626089026
5.255047151439201,5.353895591346486,5.023511868027749,-0.21649680737275134,1.2262553609412388,14.713607061091995
5.3085861073526655,5.366158144955898,5.021346899954022,-0.06936073676183138,-0.5184229993909818,17.99113290528658
5.362247688802224,5.360973914961988,5.020653292586403,0.11055059229103442,-2.040101016204566,20.887891921695253
5.415857427951844,5.340572904799942,5.021758798509314,0.31942951150798693,-3.3321825013944584,23.363156213547555
5.469263156999843,5.307251079785998,5.024953093624394,0.5530610736434625,-4.417724304832622,25.42109528416074
5.522335667797703,5.263073836737672,5.030483704360829,0.8072720264850699,-5.3381002986601525,27.09523678638875
5.57496640616508,5.209692833751071,5.038556424625679,1.0782243943489573,-6.142271743465352,28.43335207359122
5.627063334502591,5.148270116316418,5.049338668569169,1.3625579150848695,-6.87883557072973,29.486093081204956
5.678546035665755,5.079481760609121,5.062964247720017,1.657418845896919,-7.591241056878468,30.300135469156164
5.729340853271846,5.003569350040336,5.079538436178987,1.9604202005884805,-8.315570697068848,30.915088857384134
5.779376546772249,4.920413643069647,5.099142638184872,2.269571089162322,-9.080001754645714,31.362960260056216
5.828580683202945,4.82961362552319,5.121838349076495,2.583200691762884,-9.905181370801186,31.669065834940405
5.876876819458177,4.730561811815178,5.147670355994124,2.8998913501122883,-10.804989706037036,31.853595738469387
5.924182437576329,4.622511914754808,5.176669269495247,3.2184273074969822,-11.787388661541705,31.933337621959772
5.9704075567238775,4.504638028139391,5.208853542570217,3.53776068371658,-12.855210933345447,31.923283056003644
6.0154539370052715,4.376085918805937,5.2442311494073826,3.856993514276616,-14.006836017037552,31.837974874754373
6.059214796193331,4.236017558635561,5.282801084550148,4.175373263024159,-15.236742034727323,31.692522575684613
6.101574971779686,4.083650138288288,5.32455481718039,4.492298488781006,-16.535930539194613,31.503238990609645
6.14241147316257,3.918290832896342,5.3694778020682,4.807330878687102,-17.892206462291075,31.287849226283758
6.181594381491533,3.7393687682734313,5.417551110855071,5.12020937094994,-19.290262512836684,31.065199240697257
6.218988069174268,3.5464661431450644,5.468753204564571,5.430861363356913,-20.711467644252004,30.854346320167075
6.254452730605718,3.3393514667025443,5.523061818198141,5.739404826558584,-22.133190577328605,30.672841563186164
6.2878462452727435,3.1180195609292585,5.580455866463726,6.046133242190446,-23.52739812096212,30.533906239652794
6.319026440882036,2.8827455797196375,5.640917198885631,6.351472304586974,-24.85815273600176,30.442052025010646
6.347853896679232,2.63416405235962,5.7044319219315005,6.65589282483708,-26.07750490116083,30.386506381601787
6.374195537202828,2.3733890033480116,5.770990850179872,6.9597578886530975,-27.11917945087591,30.331631703043428
6.397929427236308,2.1021972088392524,5.840588429066402,7.263074205683532,-27.889525072204762,30.20354045600123
6.4189513993247,1.8233019581172047,5.913219171123238,7.565109610243544,-28.25575369614074,29.872733711921196
6.437184418905872,1.5407444211557975,5.988870267225673,7.863836947362756,-28.033193347985375,29.134712132157123
6.45259186311743,1.2604124876759437,6.0675086366993005,8.155184068684328,-26.97715613621984,27.69557640705562
6.465195987994189,0.9906409263137452,6.1490604773861435,8.432139832754883,-24.79197721758291,25.178974814172552
6.475102397257326,0.7427211541379162,6.233381875713692,8.683929580896608,-21.178223065063992,21.182439156312537
6.482529608798705,0.5309389234872762,6.320221171522658,8.895753972459733,-15.939800709282338,15.412986944230392
6.4878389980335776,0.37154091639445286,6.409178711247256,9.049883841902037,-9.145616881460255,7.896713582606442
6.491554407197522,0.2800847475798503,6.499677549666276,9.128850977728101,-1.2718616996849508,-0.8339072390556694
6.49435525467332,0.2673661305830008,6.5909660594435575,9.120511905337544,6.81418437631642,-9.758159300341347
6.4970289159791506,0.33550797434616497,6.682171178496933,9.02293031233413,14.111838639841192,-17.69853399071475
6.500383995722612,0.47662636074457687,6.7724004816202745,8.845944972426983,19.861357568768604,-23.79745831787647
6.505150259330058,0.6752399364322629,6.860859931344544,8.607970389248218,23.7721406866494,-27.79433966042942
6.511902658694381,0.9129613432987569,6.946939635237026,8.330026992643923,25.97928194829686,-29.948268994971702
6.521032272127369,1.1727541627817255,7.030239905163465,8.030544302694206,26.84079790977922,-30.764909185392376
6.532759813755185,1.4411621418795177,7.110545348190407,7.722895210840282,26.748532178752754,-30.755164289501625
6.547171435173981,1.7086474636670452,7.18777430029881,7.415343567945266,26.028520189096625,-30.31737800537388
6.564257909810651,1.9689326655580115,7.261927735978262,7.112169787891527,24.91638638723625,-29.71697774640856
6.583947236466232,2.218096529430374,7.333049433857178,6.8150000104274415,23.569357414672574,-29.11033520667001
6.606128201760535,2.4537901035770995,7.401199433961452,6.523896658360742,22.08796092136363,-28.577761623074466
6.630666102796306,2.674669712790736,7.4664384005450595,6.238119042129997,20.535542916205973,-28.151308971979557
6.657412799924214,2.8800251419527956,7.52881959096636,5.956605952410201,18.952510411666623,-27.834439614053263
6.686213051343742,3.0695502460694617,7.588385650490462,5.6782615562696686,17.365702306319037,-27.61481146147961
6.716908553804437,3.243207269132652,7.645168266053159,5.402113441654873,15.794163826515545,-27.472225336127224
6.749340626495764,3.4011489073978076,7.699189400469708,5.1273911882936005,14.252515758533555,-27.38344912550337
6.783352115569742,3.543674064983143,7.750463312352644,4.853556697038567,12.752800790111305,-27.325105404496533
6.818788856219573,3.671202072884256,7.79899887932303,4.5803056429936015,11.3054027748417,-27.275374072910477
6.855500876948415,3.784256100632673,7.844801935752965,4.307551902264497,9.919424579848652,-27.214963612157725
6.8933434379547425,3.8834503464311596,7.8878774547756105,4.03540226614292,8.602769049139058,-27.127617831014735
6.932177941419054,3.96947803692255,7.9282314774370395,3.7641260878327722,7.362075949005745,-27.00031418429961
6.971872721788279,4.0430987964126075,7.965872738315367,3.4941229459897762,6.202608499685384,-26.823246780588597
7.0123037097524055,4.105124881409461,8.000813967775265,3.2258904781838904,5.128144353314117,-26.589652803476582
7.0533549585665,4.156406324942602,8.033072872557105,2.9599939501491246,4.140900131355434,-26.295522954414178
7.094919021815926,4.197815326256157,8.062672812058596,2.697038720604983,3.241501352986642,-25.939227122613445
7.136897175078487,4.230230339786023,8.089643199264646,2.4376464493788483,2.4289980883581097,-25.521081318370893
7.179199478476347,4.254520320669604,8.114019663758434,2.1824356361951396,1.7009193514861811,-25.042878463821427
7.2217446816830435,4.271529514184466,8.135844020120386,1.9320068515569253,1.0533551005935955,-24.507402678332827
7.264459976824888,4.2820630651904015,8.155164088635955,1.686932824773597,0.4810530676839123,-23.917943797129144
7.307280607476792,4.286873595867241,8.172033416883691,1.4477533868023056,-0.02248196940092855,-23.27782611866099
7.350149343435464,4.286648776173232,8.186510950751714,1.2149751256156958,-0.4648967297170178,-22.589963226063936
7.3930158311971965,4.281999808876062,8.19866070200787,0.9890754933550564,-0.8549123124667272,-21.85644983158584
7.435835829285957,4.273450685751395,8.208551456941422,0.770510995039198,-1.2022625739167692,-21.07820275635092
7.478570336143471,4.261428060012227,8.216256566891813,0.5597289674756888,-1.5176419329032658,-20.254667256348498
7.521184616743593,4.2462516406831945,8.22185385656657,0.35718229491220377,-1.8126471761202674,-19.38361275126476
7.5636471331504245,4.228125168921991,8.225425679515691,0.16334616739955615,-2.0996861217551817,-18.46105408073556
7.605928384839644,4.20712830770444,8.227059141189686,-0.021264373407799464,-2.3918122239752817,-17.48135030462274
7.647999667916689,4.183210185464687,8.226846497455607,-0.19607787645402688,-2.702429813025831,-16.437550587410065
7.689831769771335,4.156185887334429,8.224885718691068,-0.3604533823281275,-3.0448032680359844,-15.322070536167217
7.73139362864468,4.125737854654069,8.221281184867786,-0.5136740876897997,-3.431301862574732,-14.127782556479817
7.772651007191221,4.091424836028322,8.216144443990888,-0.6549519132545979,-3.872330963323341,-12.849575106944457
7.813565255551504,4.052701526395088,8.209594924858342,-0.7834476643240424,-4.374952803118828,-11.486359674136272
7.854092270815455,4.0089519983639,8.2017604482151,-0.8983112610654052,-4.941296474126968,-10.043366700169068
7.894181790799094,3.95953903362263,8.192777335604447,-0.9987449280670958,-5.566993959364979,-8.53437784632239
7.933777181135321,3.90386909402898,8.182789886323777,-1.0840887065303197,-6.240026467986016,-6.983336192084148
7.972815872075611,3.84146882934912,8.171948999258474,-1.1539220684511613,-6.940457070635504,-5.424652816924326
8.011230560369102,3.772064258642765,8.160409778573962,-1.2081685966204045,-7.641473608487326,-3.9016126851104582
8.048951202955529,3.6956495225578916,8.148328092607759,-1.2471847234715092,-8.311906936142744,-2.4626629099497084
8.085907698181108,3.612530453196464,8.135856245373043,-1.2718113525710062,-8.919952154826891,-1.1559986278974053
8.122033002713072,3.523330931648195,8.123138131847334,-1.2833713388499803,-9.437359847554214,-0.023521143660748985
8.157266312029554,3.428957333172653,8.110304418458835,-1.2836065502865879,-9.843108755550789,0.9043977775930067
8.19155588536128,3.330526245617145,8.09746835295597,-1.2745625725106577,-10.125683374232214,1.6120836403747878
8.224861147817451,3.229269411874823,8.084722727230863,-1.2584417361069098,-10.283530606854422,2.099055644239116
8.2571538419362,3.126434105806279,8.072138309869795,-1.2374511796645187,-10.32384206378213,2.378079350384058
8.288418182994262,3.023195685168458,8.05976379807315,-1.2136703861606781,-10.260240264023597,2.4716276988534456
8.318650139845946,2.920593282528222,8.047627094211542,-1.1889541091721436,-10.110090884151274,2.407809213576306
8.34785607267123,2.819492373686709,8.035737553119821,-1.1648760170363806,-9.892043331636044,2.2166462880086777
8.376050996408097,2.7205719403703488,8.024088792949458,-1.1427095541562937,-9.62414912532501,1.9272172119875774
8.4032567158118,2.6243304491170987,8.012661697407895,-1.1234373820364179,-9.322656921495982,1.5658088956390386
8.42950002030297,2.531103879902139,8.00142732358753,-1.1077792930800274,-9.001411272067244,1.1549748265380455
8.454811059101992,2.4410897671814666,7.990349530656729,-1.096229544814647,-8.6717028755827,0.7132749499219515
8.479221956773806,2.3543727384256394,7.979387235208583,-1.0890967953154276,-8.34240800172003,0.25545771959443325
8.502765684158062,2.270948658408439,7.968496267255429,-1.0865422181194833,-8.020281873812337,-0.2071168907807562
8.525475170742146,2.1907458396703157,7.957630845074235,-1.0886133870272907,-7.710309769553265,-0.6659580125143486
8.547382629138848,2.113642741974783,7.946744711203961,-1.0952729671524342,-7.416055917134198,-1.1149194444490809
8.568519056558596,2.039482182803441,7.935791981532437,-1.106422161596925,-7.139978119689498,-1.5497201915214025
8.58891387838663,1.968082401606546,7.924727759916467,-1.121919363512139,-6.88369479251076,-1.967531931571626
8.608594702402696,1.8992454536814383,7.913508566281346,-1.1415946828278551,-6.648202369498801,-2.3666382207734307
8.62758715693951,1.8327634299864504,7.902092619453067,-1.1652610650355895,-6.434046994461864,-2.7461609595530625
8.645914791239376,1.7684229600418317,7.890440008802711,-1.1927226746311201,-6.241456974383997,-3.1058454342767106
8.663599020839793,1.7060083902979917,7.8785127820564,-1.2237811289738874,-6.07044305800779,-3.4458940450769306
8.680659104742773,1.6453039597179138,7.866274970766661,-1.2582400694246567,-5.920873161805511,-3.766839225995043
8.697112144339952,1.5860952280998586,7.853692570072414,-1.295908461684607,-5.792527277068203,-4.06944719142308
8.712973096620951,1.5281699553291765,7.8407334854555675,-1.3366029335988379,-5.685137284114729,-4.354645503841379
8.728254796174243,1.4713185824880293,7.827367456119579,-1.3801493886372516,-5.598415440069366,-4.623468790197291
8.742967981999122,1.4153344280873357,7.8135659622332065,-1.4263840765392244,-5.532074468145618,-4.877018118008132
8.757121326279995,1.3600136834058796,7.799302121467814,-1.4751542577193058,-5.4858414796058454,-5.116430537021137
8.770721463114054,1.3051552686098211,7.784550578890621,-1.526318563089517,-5.459467398988098,-5.342856098807627
8.783773015800152,1.25056059461994,7.7692873932597255,-1.5797471240775933,-5.452733121892595,-5.5574403045685745
8.796278621746351,1.196033263401014,7.753489922018949,-1.635321527123279,-5.465453292376901,-5.761310426720049
8.80823895438036,1.141378730477245,7.737136706747717,-1.6929346313904796,-5.497478324266298,-5.955564528749207
8.819652741685132,1.086403947234582,7.720207360433812,-1.7524902766779717,-5.54869509026911,-6.141262293994485
8.830516781157478,1.0309169963318907,7.7026824576670325,-1.8139028996179165,-5.61902655039744,-6.319416987414248
8.840825951120797,0.9747267308279163,7.684543428670853,-1.877097069492059,-5.708430475324704,-6.490988031435568
8.850573218429076,0.9176424260746693,7.665772457975932,-1.9420069498064148,-5.816897331912062,-6.656873790735847
8.859749642689824,0.8594734527555487,7.646352388477868,-2.008575687713773,-5.944447330215397,-6.817904241702603
8.86834437721738,0.8000289794533947,7.62626663160073,-2.076754730130799,-6.091126578534567,-6.9748332585575366
8.876344667011914,0.739117713668049,7.605499084299423,-2.1465030627163744,-6.257002251540034,-7.128330286250125
8.883735844148594,0.6765476911526487,7.584034053672259,-2.2177863655788754,-6.442156643372917,-7.27897119548238
8.890501321060121,0.6121261247189195,7.56185619001647,-2.290576077533699,-6.646679950947394,-7.427228131961848
8.89662258230731,0.5456593252094455,7.538950429241133,-2.3648483588533176,-6.870661611367572,-7.573458183904686
8.902079175559406,0.47695270909576976,7.5153019456526,-2.4405829406923645,-7.114180000989414,-7.717890702241998
8.906848702650363,0.4058109090858756,7.490896116245676,-2.5177618477147843,-7.377290292463264,-7.860613120038541
8.910906811741222,0.33203800616124296,7.4657184977685285,-2.5963679789151697,-7.660010260981645,-8.00155513439118
8.914227191802835,0.2554379035514265,7.439754817979376,-2.6763835302590815,-7.962303833478322,-8.140471138694389
8.91678157083835,0.17581486521664325,7.412990982676786,-2.7577882416460255,-8.284062186884126,-8.276920828973319
8.918539719490516,0.09297424334780198,7.385413100260326,-2.840557449935759,-8.62508222660899,-8.410247958532254
8.919469461923994,0.006723421081712075,7.357007525760968,-2.9246599295210816,-8.985042317691278,-8.539557284189256
8.919536696134811,-0.0831270020952007,7.327760926465758,-3.0100555023629743,-9.363475202607608,-8.663689838713266
