th1 (rad),w1 (rad/s),th2 (rad),w2 (rad/s),a1 (rad/s^2),a2 (rad/s^2)
1.6035682435784062,-1.9029971972557023,4.478993115527161,-1.0773650263714647,-10.292514243989402,-1.3483433680799768
1.5845382716058491,-2.005922339695596,4.468219465263447,-1.0908484600522645,-10.414656914139357,-1.5871711569909002
1.5644790482088933,-2.1100689088369897,4.457310980662924,-1.1067201716221735,-10.53113952485018,-1.8202575318882226
1.5433783591205235,-2.2153803040854916,4.446243778946702,-1.1249227469410557,-10.639311944010485,-2.0431718029670876
1.5212245560796684,-2.3217734235255962,4.434994551477291,-1.1453544649707266,-10.736198068676076,-2.2509236539145996
1.4980068218444125,-2.429135404212357,4.423541006827584,-1.1678637015098725,-10.81848006504814,-2.4379386865627426
1.4737154678022888,-2.5373202048628385,4.411862369812486,-1.1922430883755,-10.88248937881999,-2.598045686848795
1.4483422657536604,-2.646145098651038,4.399939938928731,-1.218223545243988,-10.924206614716645,-2.7244794148877522
1.42188081476715,-2.7553871647982047,4.387757703476291,-1.2454683393928656,-10.939272600956855,-2.809903150692775
1.394326943119168,-2.8647798908077733,4.375303020082362,-1.2735673708997934,-10.923013137769532,-2.8464555778646705
1.3656791442110903,-2.9740100221854684,4.362567346373364,-1.3020319266784401,-10.870480065502107,-2.825826819234632
1.3359390439892356,-3.0827148228404893,4.3495470271065795,-1.3302901948707864,-10.776511363582124,-2.7393685048654315
1.3051118957608308,-3.1904799364763106,4.336244125157871,-1.3576838799194406,-10.635812991707526,-2.578242602205212
1.2732070963960676,-3.296838066393386,4.322667286358677,-1.3834663059414927,-10.44306509018673,-2.33361331072418
1.2402387157321337,-3.4012687172952534,4.308832623299263,-1.4068024390487344,-10.19305493924167,-1.9968855466236513
1.2062260285591813,-3.50319926668767,4.294764598908776,-1.4267712945149709,-9.880838692473834,-1.5599923252765315
1.1711940358923045,-3.6020076536124086,4.280496885963626,-1.4423712177677361,-9.501933276351252,-1.015731570429743
1.1351739593561805,-3.697026986375921,4.266073173785949,-1.4525285334720335,-9.052538878192301,-0.3581503863079231
1.0982036894924212,-3.787552375157844,4.2515478884512286,-1.4561100373351128,-8.529790980244275,0.41702856531230537
1.0603281657408428,-3.872850284960287,4.2369867880778775,-1.4519397516819896,-7.932038749010929,1.3119484403235762
1.0215996628912398,-3.9521706724503964,4.222467390561057,-1.4388202672787538,-7.259143551479904,2.326142980537159
0.9820779561667359,-4.024762107965196,4.20807918788827,-1.4155588374733823,-6.51278726823944,3.456067457438976
0.9418303350870839,-4.08988998064759,4.193923599513536,-1.3809981628989925,-5.696774844633702,4.6946669202069735
0.900931435280608,-4.146857729093927,4.180113617884547,-1.3340514936969228,-4.8173093303511845,6.031021884149632
0.8594628579896688,-4.195030822397439,4.166773102947578,-1.2737412748554264,-3.883211036710366,7.450120157382131
0.8175125497656944,-4.233862932764543,4.154035690199024,-1.199240073281605,-2.906046413272692,8.932809820534239
0.775173920438049,-4.26292339689727,4.142043289466208,-1.1099119750762627,-1.9001283822671582,10.45598996339304
0.7325446864690763,-4.281924680719942,4.130944169715445,-1.0053520754423324,-0.8823501917418148,11.993089733024878
0.6897254396618769,-4.29074818263736,4.120890648961021,-0.8854211781120837,0.1281785016692406,13.514869824282314
0.6468179578355033,-4.289466397620668,4.1120364371799,-0.7502724798692605,1.1107099680389885,14.990552145597158
0.6039232938592967,-4.278359297940278,4.104533712381207,-0.6003669584132889,2.0436447917867646,16.38924372594425
0.5611397008798938,-4.25792285002241,4.098530042797075,-0.4364745211538464,2.9054902637488715,17.681574016505568
0.5185604723796697,-4.228867947384922,4.094165297585536,-0.2596587809887907,3.675922606592958,18.841418239786712
0.4762717929058205,-4.192108721318992,4.091568709775649,-0.07124459859092358,4.336856739235939,19.84754372553675
0.43435070569263057,-4.148740153926633,4.090856263789739,0.1272308386644439,4.873410520687595,20.685001988904663
0.39286330415336423,-4.100006048719758,4.092128572176383,0.33408085855349057,5.274651157395684,21.346104387829765
0.35186324366616667,-4.047259537145801,4.0954693807619185,0.5475419024317882,5.534032343202953,21.83086499648197
0.31139064829470864,-3.991919213713772,4.1009447997862365,0.7658505523966079,5.6494693043502915,22.14686430299114
0.2714714561575709,-3.935424520670269,4.1086033053102025,0.9873191954265194,5.623047844078084,22.308567887526607
0.2321172109508682,-3.879194042229488,4.118476497264468,1.2104048743017854,5.460412266193717,22.336208370999568
0.19332527052857332,-3.8245899195675506,4.130580546007486,1.4337669580117811,5.169915322898119,22.254391361095173
0.15507937133289781,-3.7728907663385693,4.144918215587603,1.6563108716227328,4.761633873903552,22.090607803632217
0.11735046366951213,-3.7252744275995338,4.161481324303831,1.877216949659055,4.246354573039583,21.87382540417837
0.08009771939351679,-3.682810881869138,4.180253493800421,2.0959552037008384,3.6346174208614195,21.633297495559614
0.0432696105748254,-3.646464707660524,4.20121304583743,2.3122881786564347,2.9358776168608793,21.397680185318592
0.006804963498220164,-3.617105931491915,4.2243359276239945,2.5262649805096205,2.1578150322438376,21.194499647329405
-0.029366095816698988,-3.595527781169477,4.249598577429091,2.7382099769829145,1.3057919965261595,21.049970240062315
-0.06532137362839376,-3.582469861204215,4.27698067719892,2.9487096793835375,0.38243794757296956,20.989135775718808
-0.10114607224043591,-3.5786454817284854,4.306467773992756,3.1586010371407256,-0.6126744932103405,21.036291549251157
-0.13693252705772077,-3.5847722266605886,4.338053784364163,3.368963952633237,-1.683303283419289,21.215641163829254
-0.17278024932432667,-3.6016052594947814,4.3717434238904955,3.5811203642715297,-2.8368000171078784,21.552144961902854
-0.20879630191927448,-3.62997325966586,4.4075546275332105,3.796641813890558,-4.08439198305249,22.072519300599435
-0.2450960345159331,-3.670817179496385,4.445521045672116,4.017367006896553,-5.441492291761877,22.806338530324986
-0.2818042063108969,-3.7252321024140036,4.485694715741082,4.245430392199802,-6.928007285780922,23.787159026796704
-0.319056527335037,-3.7945121752718127,4.52814901966308,4.483301982467769,-8.568532572721928,25.05349887896373
-0.3570016490877551,-3.880197500999032,4.572982039487758,4.733836971257407,-10.392173746710615,26.649312668053145
-0.39580362409774544,-3.984119238466138,4.620320409200332,5.000330097937939,-12.43141503152686,28.62318734623746
-0.4356448164824068,-4.108433388781407,4.670323710179711,5.286561971400313,-14.718828306121734,31.024630377586945
-0.4767291503702209,-4.255621671842624,4.723189329893715,5.5968082751761825,-17.279153946044463,33.89409013101007
-0.5192853670886471,-4.428413211303068,4.7791574126454766,5.935749176486283,-20.111821293372184,37.23993900076449
-0.5635694992016779,-4.62953142423679,4.8385149044103395,6.308148566493927,-23.154411900450526,40.989291558169036
-0.6098648134440458,-4.861075543241295,4.901596390075278,6.718041482075618,-26.21012316670459,44.889084884933744
-0.6584755688764588,-5.123176774908341,4.968776804896034,7.166932330924955,-28.81416346130129,48.32226631176663
-0.7097073366255422,-5.411318409521354,5.040446128205284,7.650154994042621,-30.021497249780815,50.013738709335726
-0.7638205207207558,-5.711533382019162,5.11694767814571,8.150292381135978,-28.180947484625072,47.71471971611801
-0.8209358545409474,-5.993342856865413,5.198450601957069,8.627439578297158,-21.04206698135861,38.345281600685176
-0.8808692831096016,-6.2037635266789986,5.284724997740041,9.01089239430401,-6.978020455213037,19.683350181499993
-0.9429069183763915,-6.273543731231129,5.374833921683081,9.20772589611901,12.412306221265316,-6.03742967051161
-1.0056423556887029,-6.149420669018476,5.466911180644271,9.147351599413893,31.176717117455272,-30.597420582515927
-1.0671365623788875,-5.837653497843924,5.558384696638409,8.841377393588735,43.19496255859589,-45.63088369453436
-1.1255130973573269,-5.405703872257965,5.646798470574296,8.385068556643391,47.26780597521539,-49.63120796889191
-1.1795701360799065,-4.933025812505812,5.73064915614073,7.888756476954472,46.14458154790122,-46.50135601421136
-1.2289003942049646,-4.471579997026799,5.809536720910275,7.423742916812358,42.839052217861706,-40.426966529737804
-1.2736161941752326,-4.043189474848182,5.883774150078398,7.01947325151498,39.119351950818405,-33.82725129248322
-1.3140480889237145,-3.651995955339998,5.953968882593548,6.681200738590148,35.735304981554215,-27.70555881032121
-1.3505680484771145,-3.294642905524456,6.0207808899794495,6.404145150486936,32.91356450295482,-22.348261041453036
-1.3835144775323591,-2.9655072604949075,6.084822341484319,6.180662540072405,30.664881739499968,-17.751916461984962
-1.4131695501373083,-2.658858443099908,6.146628966885043,6.003143375452556,28.926773610438545,-13.819273686426035
-1.4397581345683073,-2.369590706995522,6.206660400639568,5.8649506385882955,27.621084827136407,-10.437268730896351
-1.4634540416382624,-2.093379858724158,6.2653099070254505,5.760577951279332,26.674414822929506,-7.504145715706705
-1.484387840225504,-1.826635710494863,6.322915686538244,5.685536494122265,26.023666821410284,-4.936513442528853
-1.5026541973304526,-1.56639904228076,6.379771051479467,5.636171359696976,25.616090289884152,-2.6691668299586606
-1.51831818775326,-1.3102381393819185,6.436132765076437,5.6094796913973894,25.407566567964725,-0.6527263462545237
-1.5314205691470792,-1.0561624737022712,6.49222756199041,5.602952427934844,25.360566680634697,1.1490355710739568
-1.541982193884102,-0.8025568068959242,6.548257086269759,5.6144427836455835,25.442282749567603,2.7615757224595936
-1.5500077619530612,-0.5481339794002482,6.604401514106215,5.642058540870179,25.623078318778123,4.201547355535579
-1.5554891017470638,-0.29190319621246696,6.660822099514917,5.684074014425535,25.875277365443594,5.478404499648987
-1.5584081337091884,-0.03315042255803102,6.717662839659172,5.738858059422025,26.172276799216647,6.595745815319542
-1.5587396379347687,0.22857234543413546,6.7750514202533925,5.8048155175752205,26.48796528935368,7.552505417510086
-1.5564539144804272,0.4934519983276723,6.833099575429145,5.880340571750321,26.796438247639,8.344085661227982
-1.5515193944971506,0.7614163808040623,6.891902981146648,5.963781428362601,27.072004245145312,8.963506577940745
-1.54390523068911,1.0321364232555155,6.951540795430274,6.0534164941420086,27.289477114028777,9.402620837725658
-1.5335838664565546,1.3050311943958033,7.012074960371694,6.147442702519265,27.424738136873824,9.653411823306536
-1.5205335545125966,1.5792785757645416,7.073549387396887,6.24397682075233,27.45553354475706,9.709355963708887
-1.5047407687549512,1.8538339112121123,7.135989155604411,6.341070380389419,27.36244552634176,9.566790973210843
-1.48620242964283,2.1274583664755298,7.199399859408305,6.436738290121527,27.129943984887483,9.226193683796783
-1.4649278459780748,2.3987578063244044,7.2637672423095205,6.529000226959495,26.74739771713094,8.693241819484692
-1.4409402679148307,2.666231783495714,7.329057244579116,6.615932645154341,26.209905623254432,7.979521761989581
-1.4142779500798734,2.9283308397282584,7.395216571030659,6.695727862774238,25.518809119977963,7.102756648331158
-1.384994641682591,3.183518930928038,7.462173849658401,6.766755429257549,24.681771754240025,6.086469767700175
-1.3531594523733106,3.4303366484704383,7.529841403950977,6.827620126934551,23.712361616270993,4.959064455669238
-1.3188560858886063,3.6674602646331484,7.598117605220322,6.877210771491244,22.62914030420412,3.752383182317722
-1.2821814832422749,3.8937516676751898,7.666889712935235,6.914734603314422,21.45433638935031,2.4998888146234544
-1.243243966565523,4.108295031568693,7.736037058968379,6.9397334914606565,20.212245681224495,1.2346716192804728
-1.2021610162498362,4.310417488380938,7.805434393882986,6.952080207653461,18.927540450213307,-0.012488398770747103
-1.1590568413660267,4.499692892883071,7.8749551959595205,6.951955323665754,17.623676392266344,-1.2147890551115228
-1.114059912437196,4.675929656805734,7.9444747491961785,6.939807433114638,16.321559434925263,-2.350639989884513
-1.0673006158691385,4.839145251154987,8.013872823527326,6.9163010332157935,15.038582772509034,-3.40437407741553
-1.0189091633575886,4.989531078880077,8.083035833859483,6.882257292441638,13.78808130287539,-4.366426954762138
-0.9690138525687879,5.127411891908831,8.1518584067839,6.838593022894017,12.579190175695258,-5.233043952365987
-0.9177397336496996,5.253203793665783,8.22024433701284,6.786262583370357,11.417047427714115,-6.005620135970843
-0.8652076957130418,5.367374267942924,8.288106962846543,6.726206382010648,10.303253181589827,-6.689799791947148
-0.8115339530336125,5.470406799758822,8.355369026666649,6.659308384091177,9.236489631670938,-7.294459289487378
-0.7568298850360243,5.562771696075532,8.421962110507561,6.586363791196303,8.213213092976392,-7.830678581298824
-0.701202168075269,5.644903827005296,8.487825748419525,6.508057005383314,7.22834600759389,-8.310779570856518
-0.644753129805216,5.717187287081234,8.552906318473358,6.424949209674749,6.275917334293563,-8.747481086648259
-0.5875812569344037,5.77994646042417,8.617155810570106,6.337474398808267,5.349619809337203,-9.153195036716088
-0.529781792330162,5.833442658517542,8.680530554558189,6.245942448441106,4.4432694631224505,-9.539468929815513
-0.4714473657449866,5.877875353148766,8.7429899790426,6.150547759142951,3.5511653611497698,-9.916566911082535
-0.41266861221349893,5.913387006760264,8.80449545663403,6.051382090032125,2.668355791484193,-10.293174108112229
-0.3535347421458963,5.940070564675105,8.86500927753435,5.9484503489510026,1.7908216844683806,-10.676206156967453
-0.29413403649914527,5.957978781519789,8.92449378102386,5.841688287381328,0.9155898291253609,-11.07070588722421
-0.23455424868394736,5.967134679811043,8.982910663897673,5.730981228509086,0.04078835143285262,-11.479811052878226
-0.17488290188583694,5.967542563325371,9.040220476182764,5.616183117980304,-0.8343442896457177,-11.904779738388157
-0.11520747625258324,5.959199120428914,9.096382307362568,5.497135320596422,-1.7094872724873529,-12.345062974229824
-0.0556154850482941,5.94210424770404,9.151353660568532,5.373684690854124,-2.5832947069610297,-12.798416742886095
0.0038055574287463034,5.916271300634429,9.205090507477072,5.245700523425263,-3.453476367567302,-13.261047712363176
0.0629682704350906,5.881736536958757,9.257547512711325,5.1130900463016316,-4.316897480983877,-13.727788596775316
0.12178563580467816,5.838567562148918,9.308678413174341,4.975812160333878,-5.169694354509779,-14.192299988484
0.18017131142616732,5.78687061860382,9.358436534777681,4.833889160449038,-6.007403444007051,-14.647295856012441
0.23804001761220553,5.72679658416375,9.406775426382172,4.687416201888913,-6.8251019076587855,-15.084789706448026
0.295307983453843,5.658545565087162,9.453649588401062,4.536568304824433,-7.617557786205222,-15.496357741739148
0.35189343910471466,5.58236998722511,9.499015271449306,4.3816047274070415,-8.379387718297696,-15.873414290160188
0.40771713897696577,5.498576110042133,9.542831318723376,4.22287058450544,-9.105219588466595,-16.207493491564595
0.46270290007738707,5.4075239141574665,9.585060024568431,4.060795649589794,-9.78985678797057,-16.49052981616165
0.5167781392189618,5.309625346277761,9.625667981064328,3.8958903514281777,-10.428439947788075,-16.715128692968403
0.5698743926817393,5.20534094679988,9.66462688457861,3.7287390644984937,-11.016601208077514,-16.874817530679405
0.6219278021497381,5.095174934719105,9.701914275223595,3.5599908891917,-11.550605467910053,-16.964266948333982
0.6728795514969291,4.979668880040005,9.737514184115513,3.39034821970836,-12.027472762927317,-16.979472286782745
0.7226762402973291,4.859394152410731,9.771417666312596,3.2205534968405325,-12.445076075376063,-16.917886573515695
0.7712701818214365,4.73494339165697,9.803623201281,3.0513746311053755,-12.802209572740233,-16.778498096634593
0.8186196157380061,4.606921295929568,9.834136947592054,2.8835896501390295,-13.098623511587556,-16.561848524235003
0.8646888286973018,4.4759350608136925,9.862972844093443,2.7179711648966793,-13.335023765169485,-16.269990876036253
0.9094481793054388,4.342584823161998,9.89015255574241,2.555271256136317,-13.513035990491169,-15.906390302904889
0.9528740275370587,4.207454463257086,9.915705268303775,2.396207353107268,-13.635136634896929,-15.475774180865825
0.9949485721696296,4.071103096908117,9.939667341834847,2.2414496112986098,-13.704555054588646,-14.983941095214693
1.0356596031387109,3.9340575463622307,9.962081837947833,2.0916102003464627,-13.725152746262387,-14.437540546509021
1.075000178602333,3.796806018899607,9.982997939951298,1.9472347948813724,-13.701286891922027,-13.843836428576118
1.1129682387913291,3.659793149980387,10.002470287900112,1.8087964305956112,-13.637665974085131,-13.2104674235024
1.149566170291133,3.5234164902395357,10.020558252206067,1.6766917563605872,-13.53920511099383,-12.545216490362195
1.1848003351935283,3.3880244391295973,10.037325169769673,1.5512395914569652,-13.410888052163378,-11.855799780614598
1.2186805795848243,3.2539155586079636,10.052837565684243,1.4326815936508193,-13.257641595200582,-11.149682868377544
1.251219735170904,3.1213391426559576,10.067164381620751,1.3211847649670438,-13.084226707920598,-10.433929450389885
1.2824331265974636,2.990496875576752,10.08037622927042,1.216845470463145,-12.895149048615393,-9.715084949037623
1.312338095353231,2.861545385090598,10.092544683975053,1.1196946209727687,-12.694590038553592,-8.99909499227891
1.3409535492041371,2.734599484705062,10.10374163018478,1.0297036710499796,-12.486358285089416,-8.29125672199419
1.3682995440511878,2.609735901854168,10.11403866689528,0.9467911038300377,-12.273860065955137,-7.596199390437852
1.3943969030697294,2.4869973011946165,10.123506577933579,0.8708291099256592,-12.060086803698844,-6.917889760598183
1.4192668760816756,2.366396433157628,10.132214869032836,0.8016502123196774,-11.847616981839117,-6.259657388001726
1.442930840413252,2.247920263339237,10.140231371156032,0.7390536384396601,-11.63862974927062,-5.6242348466642476
1.4654100430466444,2.1315339658465304,10.14762190754043,0.6828112899730177,-11.434927476622317,-5.013808268563705
1.4867253827051097,2.017184691080307,10.15445002044016,0.6326732072873806,-11.237964709930727,-4.430074089371938
1.5068972296159127,1.9048050439809998,10.160776752513033,0.5883724663936613,-11.048881256340872,-3.8742985376974057
1.5259452800557227,1.7943162314175911,10.16666047717697,0.5496294810166872,-10.868537483417658,-3.34737709175935
1.5438884423698986,1.6856308565834146,10.172156771987137,0.5161557100990937,-10.697550277603076,-2.8498917967028876
1.5607447509357328,1.5786553538073838,10.177318329088127,0.4876567921320648,-10.536328458618287,-2.3821649473193114
1.5765313044738067,1.4732920692212008,10.182194897009447,0.4638351426588717,-10.385106765508018,-1.94430817123629
1.5912642251660187,1.3694410015661207,10.186833248436036,0.4443920609465088,-10.243977805491712,-1.5362663866275152
1.60495863518168,1.2670012235112036,10.1912771690455,0.42902939708023363,-10.112921584500578,-1.1578564559601583
1.617628647416792,1.1658720076661977,10.195567463016303,0.41745083252063203,-9.99183241876618,-0.8088006195739615
1.629287367493454,1.065953683478536,10.19974197134151,0.4093628263248924,-9.880543163759906,-0.48875498004312334
1.6399469043282393,0.9671482518409369,10.203835599604758,0.4044752765244612,-9.778846795604158,-0.19733343200965234
1.6496183868466487,0.8693597838848953,10.207880352370003,0.4025019422043647,-9.686515446939723,0.06587249568656939
1.6583119846854977,0.7724946294154981,10.211905371792046,0.4031606671612304,-9.603317040277817,0.3012773872388159
1.6660369309796526,0.6764614590127199,10.215936978463658,0.4061734410336186,-9.529029682738376,0.5092887776225765
