th1 (rad),w1 (rad/s),th2 (rad),w2 (rad/s)
5.117973118865148,2.3577449034733826,1.2813105779768712,1.4463175084584419
5.141550567899882,2.4244182355513253,1.2957737530614557,1.3679991646555936
5.165794750255396,2.4874538617853554,1.3094537447080117,1.2836704451445866
5.1906692888732495,2.5468176666249396,1.3222904491594576,1.1932790493255137
5.216137465539499,2.6025033074104607,1.3342232396527127,1.0968046835347447
5.242162498613604,2.654535499715109,1.3451912864880602,0.9942613853859816
5.268707853610755,2.702973154580132,1.35513390034192,0.8856993147068258
5.295737585156557,2.747912231217363,1.3639908934889884,0.7712057896419032
5.32321670746873,2.7894881672531118,1.3717029513854073,0.6509053499729953
5.3511115891412615,2.8278777575707923,1.3782120048851372,0.5249586483900913
5.37939036671697,2.863300373380947,1.383461591369038,0.39356000490088766
5.408023370450779,2.8960184454596134,1.387397191418047,0.2569335087338379
5.4369835549053755,2.9263371785572185,1.3899665265053853,0.1153276130834863
5.466246926690948,2.954603515599084,1.3911198026362201,-0.03099176383040264
5.495792961846939,2.981204427211468,1.390809884997916,-0.18174954887150468
5.525605006119053,3.006564660297598,1.388992389509201,-0.33667108991190275
5.555670652722029,3.0311441345751016,1.3856256786100818,-0.49549280288771314
5.585982094067781,3.055435224211593,1.3806707505812046,-0.6579736660195331
5.616536446309897,3.079960199917789,1.3740910139210092,-0.8239073330160137
5.647336048309074,3.1052691334442715,1.3658519405908491,-0.9931346607945687
5.678388739643517,3.1319385814474394,1.3559205939829035,-1.165556499357123
5.709708125457992,3.1605713709442886,1.3442650289893323,-1.3411466701013186
5.741313839167434,3.191797807346667,1.330853562288319,-1.5199651602961448
5.773231817240901,3.226278622584177,1.3156539106853575,-1.7021716806790197
5.805494603466743,3.264709979468489,1.2986321938785674,-1.8880398643239034
5.838141703261428,3.307830852628693,1.2797517952353283,-2.0779725215508247
5.871220011787715,3.3564331168828136,1.2589720700198201,-2.272518499559347
5.904784342956543,3.411374686477474,1.2362468850242267,-2.4723918143051153
5.938898089821318,3.4735960492436857,1.2115229668811756,-2.678493803514654
5.9736340503137555,3.5441404963640384,1.184738028846029,-2.8919390496462887
6.0090754552773955,3.6241781950198866,1.155818638349566,-3.114085651874359
6.045317237227595,3.7150338564092893,1.1246777818308225,-3.346569910832682
6.0824675757916875,3.8182168586658007,1.0912120827224956,-3.5913442807423683
6.120649744378346,3.935450793545483,1.055298639915072,-3.850714856860031
6.160004252313801,4.068695549605135,1.0167914913464715,-4.127369367568042
6.200691207809852,4.220147360598732,0.975517797670791,-4.424376048862041
6.24289268141584,4.392187207192026,0.9312740371821706,-4.745112984640128
6.28681455348776,4.587219104460781,0.8838229073357693,-5.093047482118907
6.332686744532368,4.807286205510858,0.8328924325145802,-5.471210500123412
6.3807596065874765,5.05325916883244,0.7781803275133461,-5.881080732456631
6.431292198275801,5.3232498478916614,0.7193695201887798,-6.320394981942579
6.484524696754717,5.6097660296456935,0.656165570369354,-6.779207633100982
6.540622357051174,5.895268085675231,0.5883734940383442,-7.233720305761634
6.599575037907926,6.147046368234408,0.5160362909807278,-7.639153933971274
6.66104550159027,6.315999202251477,0.439644751641015,-7.928046241250192
6.724205493612785,6.348588809889997,0.3603642892285131,-8.026915555022606
6.787691381711685,6.215950151383375,0.28009513367828703,-7.896791593273613
6.8498508832255185,5.938752526236714,0.20112721774555092,-7.567654373815387
6.9092384084878855,5.575750803149265,0.12545067400739707,-7.122144479198926
6.964995916519378,5.186880366152147,0.054229229215407806,-6.644039958480016
7.016864720180899,4.810392620123851,-0.012211170369392357,-6.1866281325132455
7.0649686463821375,4.463122144962584,-0.07407745169452482,-5.773333653481813
7.109599867831763,4.149057968908255,-0.13181078822934295,-5.409771135897598
7.151090447520846,3.8663281947217616,-0.18590849958831893,-5.093483312676266
7.189753729468063,3.6110143453903,-0.2368433327150816,-4.819228357847131
7.225863872921966,3.3788700335110287,-0.2850356162935529,-4.581346465894996
7.2596525732570765,3.165983643875368,-0.33084908095250287,-4.374662371736102
7.29131240969583,2.968972763129431,-0.3745957046698639,-4.194742157200276
7.321002137327124,2.784990232403291,-0.4165431262418667,-4.037892094401262
7.348852039651157,2.6116646402191988,-0.4569220471858793,-3.9010687751207453
7.374968686053349,2.4470259601555777,-0.4959327349370868,-3.7817699171054406
7.399438945654905,2.289435565485284,-0.5337504341081412,-3.6779318784416026
7.422333301309758,2.1375266285764085,-0.5705297528925571,-3.5878418135102055
7.443708567595522,1.9901556370025641,-0.6064081710276592,-3.5100652619325343
7.463610123965547,1.8463638657888037,-0.6415088236469846,-3.443387458950238
7.482073762623435,1.7053471457686098,-0.675942698236487,-3.386766049791432
7.499127234081121,1.5664323050150384,-0.7098103587344013,-3.3392930072688203
7.514791557131272,1.4290588725364317,-0.7432032888070895,-3.3001638987582895
7.529082145856636,1.2927648750705647,-0.7762049277946724,-3.268653028280464
7.542009794607342,1.1571757756720025,-0.8088914580774771,-3.24409331982559
7.5535815523640615,1.021995782528406,-0.841332391275733,-3.2258600894431626
7.563801510189346,0.8870008991624823,-0.8735909921701647,-3.213358076097774
7.572671519180971,0.7520331993581804,-0.9057245729311424,-3.2060112715002855
7.580191851174552,0.6169958994638912,-0.9377846856461453,-3.2032552147536553
7.586361810169191,0.48184887437356433,-0.9698172377936818,-3.204531505580504
7.591180298912927,0.34660432758946,-1.0018625528494869,-3.209284345810296
7.594646342188821,0.2113223851536491,-1.0339553963075898,-3.216958947441538
7.596759566040358,0.07610644134557679,-1.0661249857820052,-3.2270016512186657
7.597520630453814,-0.05890185710248855,-1.098395002294192,-3.238861586522352
7.596931611882789,-0.19352804135380547,-1.1307836181594155,-3.2519936760811783
7.594996331469251,-0.32757065782766137,-1.1633035549202273,-3.2658627527707615
7.591720624890975,-0.46080744604156404,-1.195962182447935,-3.2799485163629725
7.587112550430559,-0.5930017362073551,-1.2287616676115647,-3.293751021680736
7.581182533068485,-0.7239089001544015,-1.2616991778283722,-3.306796362291328
7.573943444066941,-0.8532826557191463,-1.2947671414512854,-3.318642201053706
7.56541061750975,-0.9808810067844992,-1.3279535634618225,-3.328882804614439
7.555601807441905,-1.1064716007532576,-1.3612423915079668,-3.3371532654848943
7.544537091434372,-1.2298363028882102,-1.3946139241628157,-3.34313264245911
7.53223872840549,-1.3507748213203836,-1.4280452505874068,-3.3465458152421466
7.518730980192286,-1.4691072645198968,-1.4615107087398282,-3.347163927469416
7.504039907547087,-1.5846755701136594,-1.4949823480145223,-3.3448033774439367
7.48819315184595,-1.6973438047345182,-1.5284303817889617,-3.339323400800986
7.471219713798605,-1.8069973935571573,-1.5618236157969716,-3.330622367042284
7.453149739863033,-1.913541390330644,-1.5951298394673945,-3.318632976674945
7.434014325959726,-2.0168979402089886,-1.628316169234144,-3.303316593516471
7.413845346557636,-2.1170031161725165,-1.6613493351693087,-3.2846569756707433
7.392675315395911,-2.2138033246102298,-1.6941959049260162,-3.2626536789432885
7.370537282149809,-2.307251477473148,-1.7268224417154492,-3.237315400067142
7.347464767375078,-2.3973031192562195,-1.7591955957161205,-3.2086535073790765
7.323491736182516,-2.483912679607787,-1.7912821307899112,-3.176675977541588
7.298652609386438,-2.5670299995777794,-1.823048890565327,-3.1413819226714343
7.2729823093906605,-2.646597254267669,-1.8544627097920414,-3.1027568565388344
7.246516336847984,-2.722546369395199,-1.8854902783574297,-3.0607688143303835
7.219290873154032,-2.7947970058959997,-1.9160979665007334,-3.0153654098865275
7.191342903095071,-2.863255166340222,-1.9462516205995986,-2.9664718884305756
7.162710351431669,-2.9278124601734348,-1.9759163394839043,-2.913990211808587
7.133432226829935,-2.988346051542272,-2.00505624160199,-2.857799196617146
7.103548766314512,-3.0447193032086464,-2.0336342335681614,-2.7977557121969387
7.073101573282425,-3.0967831219134254,-2.061611790690131,-2.7336969338154145
7.0421337420632915,-3.144378003412292,-2.088948760028285,-2.6654436347418593
7.0106899620291685,-3.187336768043838,-2.1156031963757034,-2.592804487573297
6.97881659434873,-3.2254879688550084,-2.1415312412514362,-2.5155813284401525
6.94656171466018,-3.258659942832986,-2.1666870545358377,-2.433575316193288
6.9139751152318505,-3.286685460687113,-2.1910228076977707,-2.3465938913340643
6.88110826062498,-3.3094069111932334,-2.2144887466111114,-2.2544584058443093
6.848014191513047,-3.3266819320777063,-2.2370333306695547,-2.157012255489542
6.8147473721922704,-3.338389371056011,-2.25860345322445,-2.0541293018076505
6.78136347848171,-3.3444354289191516,-2.2791447462425265,-1.9457223241258714
6.747919124192519,-3.344759803251538,-2.2986019694837854,-1.8317511960014223
6.714471526160003,-3.3393416190977097,-2.3169194814437994,-1.712230440026209
6.681078109969026,-3.328204905120276,-2.3340417858440614,-1.5872357854971566
6.647796060917823,-3.3114233545903318,-2.349914143699033,-1.456909341101373
6.61468182737192,-3.2891241042868664,-2.364483237110047,-1.3214630054673404
6.581790586329052,-3.261490275162882,-2.3776978671647204,-1.1811797771800616
6.549175683577423,-3.228762049641653,-2.389509664936521,-1.0364126956432111
6.516888063081007,-3.191236113144346,-2.399873791892953,-0.8875812449795563
6.484975701949564,-3.1492633610866467,-2.4087496043427485,-0.7351651811734015
6.453483068338698,-3.103244863506585,-2.4161012561544823,-0.5796958899135318
6.422450619703632,-3.0536261812683683,-2.4218982150536177,-0.4217455373051548
6.391914357890948,-3.000890231640142,-2.426115670426669,-0.26191442325220327
6.361905455574546,-2.9455489967999675,-2.428734814659191,-0.10081707236929507
6.332449965606546,-2.8881344463191527,-2.4297429853828842,0.06093231446314243
6.303568621143355,-2.8291890952935415,-2.429133662238253,0.22273438401398624
6.275276730190419,-2.7692566378926546,-2.426906318398113,0.3840184781819445
6.247584163811492,-2.708873079947075,-2.4230661336162935,0.5442552167475705
6.2204954330120215,-2.6485587462795963,-2.417623581448818,0.7029673349287231
6.194009845549226,-2.5888114650461955,-2.4105939080995307,0.8597384348225638
6.168121730898764,-2.5301011413013677,-2.401996523751305,1.014219465577599
6.1428207194857505,-2.472865835454311,-2.391854329095529,1.1661329030025884
6.1180920611312075,-2.417509369023979,-2.380193000065503,1.3152747409023184
6.0939169674409674,-2.364400398294626,-2.3670402526564795,1.4615145228346504
6.070272963458021,-2.3138728318108654,-2.3524251074281333,1.6047937277481015
6.047134235139913,-2.26622742303405,-2.3363771701506524,1.7451228741641207
6.0244719609095725,-2.2217343451854528,-2.3189259414090113,1.8825777272263187
6.002254617457718,-2.180636549489691,-2.3001001641367482,2.017294985933713
5.98044825196282,-2.1431537174486404,-2.279927214277411,2.1494678007246217
5.959016714788334,-2.1094866384572684,-2.258432536270165,2.2793414312676146
5.937921848403762,-2.079821871947985,-2.235639121957489,2.4072093073605902
5.917123629684282,-2.054336584569292,-2.211567028883883,2.5334097076404456
5.8965802638385885,-2.033203484462038,-2.1862329318074782,2.658323225295171
5.876248228993968,-2.016595803862161,-2.1596496995545267,2.7823711494659977
5.856082270955347,-2.004692305835932,-2.131825988059867,2.9060148562085737
5.8360353478969875,-1.9976823088828215,-2.1027658394977813,3.029756272761906
5.8160585248081595,-1.995770732040964,-2.072468276770162,3.1541394506424774
5.7961008174877495,-1.9991831596337406,-2.0409268822637374,3.2797532516730046
5.776108985891412,-2.008170903577439,-2.008129349747007,3.407235108239233
5.7560272768556375,-2.0230159934730607,-1.9740569986646148,3.537275751771174
5.7357971169209065,-2.0440359360511327,-1.9386842411469032,3.670624690857539
5.715356757560396,-2.071587932089992,-1.9019779942383277,3.8080960291367894
5.694640878239496,-2.1060719816947637,-1.8638970339469598,3.9505738892734685
5.673580158422548,-2.14793188447805,-1.8243912950542251,4.099016165779974
5.652100839577768,-2.1976524477984145,-1.7834011333964255,4.254454425783424
5.630124315099784,-2.2557500920228906,-1.7408565891385912,4.417986289317627
5.607566814179555,-2.322752236097813,-1.696676726245415,4.590754200467984
5.584339291818577,-2.3991579874041324,-1.650769184240735,4.773900625590608
5.5603477119445355,-2.4853682389262293,-1.603030177984829,4.968483663582741
5.535494029555273,-2.5815667231119597,-1.5533453413490017,5.1753279955163825
5.509678362324153,-2.687524598808173,-1.5015920613938378,5.39477356119085
5.482803116336071,-2.802290821599021,-1.4476443257819294,5.626269662330678
5.454780208120081,-2.9237239816856357,-1.3913816291586225,5.867752207411646
5.425542968303224,-3.047833285218795,-1.332704107084506,6.114756719143643
5.395064635451036,-3.167960048566673,-1.2715565398930697,6.359305158352778
5.363385034965369,-3.2740013693893375,-1.207963488309542,6.588836699231636
5.330645021271476,-3.3521959619659603,-1.1420751213172258,6.785889600849494
5.297123061651816,-3.3863478151992417,-1.0742162253087308,6.9297318277494035
5.263259583499824,-3.361268962447679,-1.0049189070312368,7.001009463540202
5.229646893875348,-3.267948301895629,-0.9349088123958348,6.988727497151548
5.1969674108563915,-3.107768112054537,-0.8650215374243193,6.895879157866268
5.165889729735846,-2.8924646077208194,-0.7960627458456566,6.739220234255311
5.136965083658637,-2.639482623009404,-0.7286705435031036,6.542794961645843
5.110570257428543,-2.3660744633672994,-0.6632425938866451,6.329880475189707
5.08690951279487,-2.0855698265358105,-0.599943789134748,6.118022882045347
5.0660538145295115,-1.8065251903353445,-0.5387635603142945,5.918043585179143
5.047988562626158,-1.533567279331801,-0.47958312446250306,5.735321057586824
5.03265288983284,-1.2686724314844349,-0.42222991388663483,5.571607900773722
5.019966165517996,-1.0122528678807075,-0.3665138348788976,5.426536796634282
5.0098436368391885,-0.7639020719438804,-0.3122484669125548,5.298633553022775
5.00220461611975,-0.5228513919712023,-0.25926213138232707,5.18592362278779
4.996976102200038,-0.28822987726356275,-0.20740289515444915,5.08626658403236
4.994093803427402,-0.05920328806473876,-0.15654022931412553,4.997526663109778
4.993501770546755,0.16495682500689882,-0.10656496268302776,4.917650717562114
4.995151338796823,0.38484296954472125,-0.05738845550740662,4.844696761342556
4.99899976849227,0.6009025861959234,-0.00894148789398106,4.776837747555983
5.00500879435423,0.8134399843577302,0.03882688958157877,4.712354332716077
5.013143194197807,1.0226239741444758,0.08595043290873955,4.649624037627283
5.023369433939251,1.22849842502742,0.13244667328501236,4.587110681055101
5.035654418189526,1.430994410993627,0.17831778009556337,4.523356001095463
5.049964362299462,1.6299433647139314,0.223551340106518,4.45697429560251
5.066263795946601,1.8250910462818903,0.2681210830625431,4.386650309059059
5.08451470640942,2.0161122989750857,0.3119875861531337,4.311140246981529
5.104675829399171,2.2026266082438095,0.35509898862294903,4.2292755890047635
5.126702095481609,2.384214454581861,0.39739174451299664,4.139969233672113
5.150544240027428,2.5604343883246776,0.4387914368497178,4.04222340909548
5.176148583910675,2.7308406751781127,0.4792136709406726,3.9351387093162318
5.203456990662456,2.895001279288666,0.5185650580338349,3.817923561393033
5.232407003455343,3.0525158759953084,0.5567442936477652,3.689903392973868
5.262932162215296,3.203033526655979,0.5936433275775039,3.550528756582281
5.294962497481856,3.3462696088585053,0.6291486151433268,3.3993816777944557
5.328425193570441,3.4820215810497475,0.6631424319212713,3.236179532181137
5.363245409380938,3.6101831738210652,0.6955042272430827,3.0607758215909673
5.399347241119148,3.7307566420465017,0.7261119854589924,2.873157313942753
5.436654807539614,3.8438627826838907,0.7548435585984199,2.6734371304171978
5.475093435366452,3.949748520806048,0.7815779299025919,2.4618435061325066
5.514590920574513,4.048791988273984,0.806196364963917,2.2387041092361817
5.555078840457252,4.141505160596847,0.8285834060562788,2.0044259707509076
5.59649389206322,4.228534271177318,0.8486276657637879,1.7594712433095518
5.638779234774994,4.310658379401753,0.8662223781968834,1.5043291596772645
5.681885818569011,4.388786618708997,0.8812656697936561,1.2394846906937942
5.725773684756101,4.463954779176649,0.893660516700594,0.9653844992625655
5.770413232547868,4.537321969434939,0.9033143616932197,0.6824008521571336
5.815786452242217,4.610168132850987,0.910138370214791,0.3907941985781017
5.861888133570727,4.683893131130111,0.9140463122005721,0.09067519104369764
5.9087270648820285,4.7600179034517875,0.9149530641110091,-0.21803291311881484
5.956327243916546,4.840187771260186,0.9127727349798209,-0.5356301305502225
6.004729121629149,4.926177124454901,0.9074164336743187,-0.862671677597485
6.053990892873697,5.01989319289756,0.8987897168983439,-1.199991868192563
6.104189824802673,5.123373825292164,0.8867897982164182,-1.5487123129174893
6.155423563055595,5.238769165258672,0.8713026750872434,-1.9102199681048913
6.207811254708181,5.368288065698312,0.8522004754061945,-2.2860881300366955
6.261494135365164,5.514074041963935,0.8293395941058275,-2.677891182102137
6.316634875784803,5.677947983915083,0.8025606822848061,-3.086825463864917
6.373414355623955,5.8609103243512335,0.771692427646157,-3.5129866148916413
6.432023458867467,6.062232917871722,0.7365625614972405,-3.9540671161398886
6.492645788046184,6.2779135779564035,0.6970218903358416,-4.4031595588994294
6.555424923825749,6.498315407716032,0.6529902947468473,-4.845424983423676
6.620408077902909,6.705250494379078,0.6045360449126106,-5.254008918695734
6.6874605828467,6.870079383848067,0.5519959557256533,-5.58744388246209
6.756161376685181,6.956599792192352,0.4961215169010324,-5.793879911606303
6.825727374607105,6.932930469932093,0.43818271778496937,-5.828066790445729
6.895056679306426,6.78946401807184,0.37990204988051207,-5.676891866060571
6.962951319487144,6.547797914074753,0.3231331312199064,-5.3720658706448345
7.028429298627891,6.249137474721167,0.269412472513458,-4.973635746851626
7.090920673375103,5.933341540435229,0.21967611504494175,-4.5401178576582
7.150254088779455,5.626917730671,0.17427493646835976,-4.111226736275772
7.206523266086165,5.342869646132355,0.13316266910560204,-3.7074312595644927
7.259951962547489,5.085318462131262,0.09608835650995712,-3.3363840653915835
7.310805147168802,4.853775737845732,0.06272451585604127,-2.9989512442851276
7.359342904547259,4.645795720265422,0.032735003413189995,-2.6929953863158294
7.405800861749913,4.45834436904426,0.0058050495500317,-2.415355851220387
7.450384305440356,4.288422448625092,-0.01834850896217217,-2.1627709433558113
7.493268529926607,4.133310285792647,-0.03997621839573029,-1.932257035459921
7.5346016327845335,3.9906361367912315,-0.0592987887503295,-1.7212299640193207
7.574507994152446,3.858368874324812,-0.0765110883905227,-1.527512379454649
7.6130916828956945,3.7347824558626224,-0.09178621218506919,-1.3492956978232447
7.650439507454321,3.6184134359428817,-0.10527916916330163,-1.1850880884141721
7.68662364181375,3.5080203676230473,-0.11713005004744335,-1.0336621111761761
7.72170384548998,3.402548231936703,-0.12746667115920512,-0.8940073059046898
7.755729327809347,3.301098519140475,-0.13640674421825202,-0.7652892823573059
7.788740313000752,3.202904560339998,-0.1440596370418251,-0.646815259789743
7.820769358604152,3.1073113622803583,-0.15052778963972252,-0.5380054002607499
7.851842472226956,3.0137591494617424,-0.15590784364233,-0.4383691221706838
7.881980063721573,2.921769888385593,-0.16029153486403686,-0.3474856094345202
7.911197762605429,2.8309361777418283,-0.16376639095838205,-0.26498782741498167
