th1 (rad),w1 (rad/s),th2 (rad),w2 (rad/s)
3.9396066742288096,1.1028205716005048,4.472170216946419,0.8513356760840186
3.9506348799448148,1.156347839376595,4.4806835737072594,0.8942322710701287
3.962198358338581,1.2116304028497071,4.4896258964179605,0.9351562595247597
3.974314662367078,1.2687441907851131,4.498977459013208,0.9739935955608745
3.9870021042749295,1.3277653013728652,4.508717394968817,1.0106246334757545
4.000279757288658,1.3887699584503759,4.518823641303574,1.0449240554974297
4.014167456873162,1.4518344511882684,4.529272881858549,1.076760868761985
4.028685801385045,1.517035054174465,4.540040490546168,1.1059984885642513
4.043856151926789,1.5844479230329331,4.551100475431811,1.132494929209397
4.059700631157119,1.6541489582336868,4.562425424723905,1.1561031291386548
4.0762421207394555,1.726213626393393,4.573986456015292,1.176671443666514
4.0935042570033895,1.80071672388498,4.585753170451957,1.194044346968486
4.11151142424224,1.8777320616642852,4.597693613921642,1.2080633952892985
4.130288744858882,1.9573320425080272,4.609774247874535,1.2185685161730855
4.149862065283963,2.039587091892021,4.6219599330362655,1.2253997044054903
4.170257936202883,2.124564890999583,4.63421393008032,1.2283992249339561
4.191503585112878,2.212329344255375,4.64649792232966,1.2274144469740518
4.213626878555432,2.3029391937249364,4.658772066799401,1.2223014624716844
4.236656270492681,2.3964461681566336,4.670995081424118,1.212929676574897
4.260620732174247,2.4928925250260447,4.683124378189866,1.199187597886442
4.285549657424507,2.5923078097863375,4.695116254168731,1.1809901013443243
4.31147273552237,2.694704618622429,4.706926155182174,1.1582874845093132
4.338419781708595,2.8000731118755344,4.718509030027267,1.1310766843072628
4.36642051282735,2.9083739899863326,4.7298197968703395,1.0994150574883146
4.395504252727213,3.0195296212357183,4.740813947445223,1.063437139932203
4.42569954893957,3.1334130153817865,4.751448318844545,1.0233747646487552
4.457033679093388,3.2498343919221218,4.761682066491033,0.9795808016490585
4.489532023012609,3.36852522819538,4.771477874507523,0.9325565366233001
4.523217275294563,3.4891199329602305,4.780803439873757,0.8829822672134467
4.558108474624166,3.6111357243321875,4.789633262545891,0.8317499944201612
4.594219831867488,3.7339519421727143,4.797950762490093,0.7799960584684517
4.631559351289215,3.8567909131475786,4.805750723074777,0.7291301905876807
4.67012726042069,3.9787035659918324,4.813042024980653,0.6808558002993734
4.709914296080608,4.098564101715763,4.819850582983647,0.6371746440904429
4.750899937097766,4.215078825163263,4.826222329424551,0.6003678311223941
4.793050725349398,4.326814222972176,4.832226007735775,0.5729451929290245
4.83631886757912,4.4322479128025085,4.837955459665065,0.5575572997366849
4.8806413467071454,4.529842720798076,4.843531032662432,0.556869551463732
4.925939773915126,4.618138942342869,4.84909972817707,0.5734057099841412
4.972121163338555,4.69585380678358,4.854833785276911,0.6093774999695384
5.01907970140639,4.761972277664633,4.860927560276607,0.6665245601566487
5.066699424183037,4.8158119279255835,4.867592805878173,0.745991558617976
5.114857543462293,4.8570482593431255,4.875052721464353,0.8482643477647378
5.163428026055724,4.8856950296860235,4.883535364942,0.9731751700228978
5.212284976352585,4.902044281469789,4.893267116642229,1.1199718975391788
5.261305419167283,4.906579207841688,4.904466835617621,1.2874334239944165
5.3103712112457,4.899876987409384,4.917341169857565,1.4740067929136318
5.3593699811197935,4.88251766199787,4.932081237786702,1.677942533787355
5.408195157739772,4.855010469381751,4.9488606631245755,1.897411034830723
5.45674526243359,4.817743138223192,4.967834773472883,2.130591229970936
5.504922693815822,4.770954519849439,4.989140685772592,2.3757304367049374
5.552632239014317,4.714727591383033,5.012897990139642,2.6311792560817806
5.599779514928147,4.6489983877181045,5.03920978270046,2.895407816726042
5.646269498805328,4.573576333285224,5.06816386086772,3.167009913507146
5.6920052621381805,4.488172144931647,5.099833960002792,3.444700594273741
5.736886983587497,4.392430477164321,5.134280965945529,3.7273111906585785
5.78081128835914,4.285965488225268,5.171554077852115,4.013784119476707
5.8236709432413925,4.168398402141141,5.211691919046882,4.3031682090144345
5.865354927262804,4.039396929473936,5.254723601137027,4.5946138716153975
5.905748896557544,3.898717156494821,5.300669739853181,4.887366095238445
5.944736068122492,3.7462493165995903,5.349543400805565,5.180751859366736
5.982198561288488,3.582069819118705,5.401350919399233,5.474157077017177
6.018019259479675,3.4065031049366414,5.456092490169405,5.766986421949551
6.0520842905290415,3.2201983320863334,5.5137623543889,6.058597382988914
6.084286273849905,3.02422741548782,5.57434832821879,6.348197739438515
6.114528548004783,2.8202120662566053,5.637830305613175,6.634693926961963
6.142730668667349,2.610487060861562,5.7041772448827945,6.916477853899054
6.168835539275965,2.3983027499299694,5.773342023421785,7.191144539146023
6.192818566775265,2.1880578618779754,5.845253468813246,7.455147674294489
6.214699145394045,1.9855284036341974,5.919804945556191,7.703432468221504
6.2345544294303865,1.7980149156882588,5.9968392702384055,7.92914217206366
6.2525345785872695,1.6342714037266535,6.076130691959042,8.123573794059638
6.268877292624536,1.5040302470681057,6.157366429899638,8.276627505471595
6.283917595095217,1.4169601429685275,6.2401327049543545,8.377971840309613
6.298087196524903,1.381070610195626,6.32391242335745,8.418923649794452
6.311897902626859,1.4009203367058318,6.408101659855395,8.394597863863197
6.325907105993917,1.4763173194442747,6.492047638494027,8.305454364923014
6.34067027918836,1.6021773547396234,6.575102182143257,8.157402941098963
6.356692052735756,1.7696831866884453,6.656676211554247,7.960312878306755
6.374388884602641,1.9682060843529772,6.7362793403373145,7.725644163338364
6.39407094544617,2.1871688267644864,6.813535781970698,7.464249329865818
6.415942633713815,2.4172891901790132,6.888178275269356,7.185024197025841
6.440115525615605,2.6511032217718107,6.960028517239614,6.8944823105914725
6.466626557833323,2.882967437440522,7.028973340345529,6.596958058564722
6.4954562322077285,3.1088003103106967,7.094942920931176,6.295089376951613
6.526544235310835,3.32575311870693,7.157893814700692,5.990339136199927
6.5598017664979045,3.5319087501016777,7.217797206062691,5.683439130607073
6.595120853998921,3.7260425263435466,7.274631597368762,5.3747237229252525
6.632381279262357,3.907445702866392,7.3283788345980145,5.064360563331325
6.671455736291021,4.075799560530326,7.379022440231328,4.7524994239958245
6.712213731896324,4.23108576956035,7.426547434471286,4.43936113161891
6.754524589591927,4.3735206454144535,7.470941045787475,4.12528504655325
6.798259796046072,4.503503913706527,7.512193896253008,3.8107493036746334
6.843294835183137,4.621575380517725,7.550301389289754,3.4963744480364958
6.889510588988315,4.728375077135666,7.585265133770119,3.1829184317562684
6.936794339759671,4.824603992624699,7.617094318087682,2.8712690551170406
6.985040379685918,4.910983530599798,7.645807008638853,2.5624386039182174
7.034150214991916,4.988212472970598,7.671431394678035,2.2575644294917705
7.084032339721622,5.0569206633495,7.694007038972953,1.957918326517008
7.134601546355117,5.1176190187564,7.713586222238123,1.6649265675738232
7.185777736542681,5.170646063193174,7.730235487913862,1.3802010881120494
7.237484197174613,5.216112229957643,7.744037498794982,1.1055802420725604
7.2896453194741895,5.253845030368664,7.755093301215707,0.8431743584927569
7.3421837697778765,5.283341146962593,7.763525044800635,0.5954066414719812
7.3950171812475025,5.303735685842781,7.769479111215355,0.36503368724215135
7.44805453810593,5.313803740425237,7.773129448087777,0.15512279948440807
7.501192575510183,5.312013462366134,7.774680676082621,-0.03104224505730932
7.5543127101338445,5.296649768712284,7.774370253632048,-0.19015461088459426
7.607279207820968,5.266019095519997,7.772468707523202,-0.31919118438177296
7.659939398776167,5.218724593131726,7.769276795679384,-0.4158156777743861
7.712126644707484,5.153969597739664,7.76511863890164,-0.47881483737184427
7.763666340684881,5.071816681807472,7.760330490527922,-0.5084604525075462
7.814384507502956,4.973319911581118,7.755245886002847,-0.5066766980547539
7.864117706618766,4.86047501629335,7.750179119022299,-0.47693300583213083
7.9127224567817,4.735991287186607,7.745409788963977,-0.4238700299401781
7.960082369653566,4.602951166684837,7.741171088664576,-0.35275792215169777
8.006111881320415,4.464454514792376,7.737643509443059,-0.2689321218153804
8.050756426468338,4.3233315181732115,7.734954188224905,-0.1773330347047
8.09398974165007,4.181966559899067,7.7331808578778585,-0.08221458005401022
8.135809407249061,4.042232151924107,7.7323587120773185,0.012977796134589048
8.176231728768302,3.905505485797609,7.732488490038665,0.10559934026135089
8.215286783626278,3.7727330195720956,7.733544483441278,0.19371984502660577
8.253014113822,3.64451397455123,7.735481681891544,0.2760033183914603
8.289459253567511,3.5211835278034886,7.738241715075459,0.3515833814273194
8.324671088845546,3.4028856459335235,7.741757548889732,0.4199507711002783
8.358699945304881,3.2896319457834915,7.7459570566007345,0.480859580812192
8.391596264762716,3.1813466869312585,7.750765652408856,0.534253069032004
8.423409731632029,3.0778997344847108,7.756108183099176,0.580207008778972
8.454188728976876,2.9791298626633487,7.761910253186966,0.6188875212233048
8.48398002760351,2.8848606840230824,7.768099128399199,0.6505202817123409
8.512828634443741,2.794911147924558,7.774604331216323,0.6753683646384714
8.540777745922986,2.709102150178925,7.7813580148627075,0.6937165042611373
8.567868767424775,2.6272604243689037,7.788295179905319,0.7058600458764653
8.594141371668464,2.549220576910164,7.795353780364083,0.7120972872108169
8.619633577437565,2.4748258867723703,7.802474753236191,0.7127242498525549
8.64438183630529,2.4039283092077133,7.809601995734717,0.7080311811507672
8.668421119397367,2.3363879895245128,7.816682307546224,0.6983002815682375
8.691784999292612,2.2720724968014134,7.823665310361907,0.6838042951554171
8.714505724260626,2.2108559190305193,7.830503353313461,0.6648057041738779
8.736614283450931,2.1526179130394456,7.8371514103552,0.6415563431427956
8.758140462581325,2.097242769005533,7.843566973786628,0.6142973005990907
8.77911289027138,2.0446185262495513,7.849709946792619,0.5832590145701284
8.799559075533875,1.9946361612343109,7.85554253693832,0.5486614945126349
8.819505437146217,1.9471888581050023,7.8610291518834465,0.5107146214354223
8.838977325727267,1.902171365129491,7.866136298097801,0.4696184913726827
8.857999039378562,1.8594794359178355,7.870832483011528,0.4255637769365409
8.87659383373774,1.8190093515351313,7.875088120780893,0.37873208851059015
8.89478392725309,1.7806575180156081,7.878875441665999,0.32929632157151584
8.912590502433247,1.7443201329481905,7.882168404881714,0.27742098022381767
8.930033703762728,1.7098929144605994,7.884942614683952,0.22326246971120084
8.947132632907334,1.6772708858897225,7.887175239381064,0.16696935271292918
8.96390534176623,1.6463482095589508,7.888844932908194,0.10868256584233146
8.98036882386182,1.6170180632995736,7.889931758566617,0.048535594073238875
8.996539004494815,1.5891725535950716,7.89041711450735,-0.013345398080831135
9.012430730030767,1.5627026594584719,7.890283660526541,-0.07684147886175147
9.028057756625351,1.5374982013544125,7.889515245737924,-0.1418409044300778
9.043432738638895,1.5134478296416183,7.888096836693623,-0.20823911555314223
9.05856721693531,1.4904390271391268,7.886014445538091,-0.27593877382473136
9.073471607206702,1.4683581205177996,7.883255057799844,-0.3448498348602769
9.08815518841188,1.4470902952983873,7.879806559451241,-0.4148896554394526
9.102626091364865,1.426519609311952,7.875657662896847,-0.4859831311927497
9.116891287457985,1.4065289995620494,7.87079783158492,-0.5580628611558747
9.130956577453606,1.3870002775348396,7.865217202973361,-0.6310693353498386
9.144826580228955,1.3678141081463921,7.858906509619863,-0.7049511414864578
9.158504721310418,1.3488499677074435,7.851856998204998,-0.7796651869455173
9.171993220987492,1.329986076534503,7.844060346335543,-0.8551769323129329
9.185293081752837,1.31109930215031,7.835508577012414,-0.9314606329952168
9.19840407477434,1.292065029402462,7.8261939706824615,-1.0084995857149692
9.211324725068364,1.2727569942918213,7.816108974825312,-1.086286377019714
9.224052295011282,1.253047078847155,7.805246111055115,-1.164823131271218
9.236582765799753,1.2328050650155913,7.793597879742403,-1.2441217558880449
9.248910816449909,1.2118983462684862,7.781156662183522,-1.3242041818487726
9.261029799912594,1.1901915964620067,7.767914620365035,-1.4051025975801557
9.272931715877213,1.1675463964598676,7.753863594389234,-1.4868596743013103
9.284607179841812,1.143820820148984,7.738994997646221,-1.5695287806137863
9.296045388043302,1.1188689827942593,7.723299709840083,-1.6531741835535927
9.307234077871245,1.0925405562358417,7.706767968004547,-1.7378712323824248
9.318159483433604,1.0646802572954948,7.689389255680723,-1.8237065200093858
9.328806286006559,1.0351273180105156,7.671152190480629,-1.9107780150073708
9.339157559186663,1.0037149490565587,7.652044410330555,-1.9991951546114155
9.34919470867723,0.9702698110806186,7.632052458784441,-2.0890788857336995
9.358897406788035,0.9346115127938404,7.611161669927104,-2.18056163675528
9.368243521915973,0.8965521597500257,7.589356053559551,-2.273787197489197
9.377209043513474,0.8558959839677561,7.566618181584659,-2.368910478060724
9.385768003353151,0.8124390921777991,7.542929076804052,-2.4660971093028765
9.393892394274928,0.7659693797524858,7.518268105711023,-2.5655228373853927
9.401552088072453,0.7162666685739353,7.492612877337169,-2.667372653542205
9.408714754758192,0.6631031404942128,7.465939150801748,-2.7718395857066747
9.415345786163133,0.6062441538712519,7.438220754944681,-2.8791230624205566
9.421408227701846,0.545449549089014,7.409429524320475,-2.9894267404622403
9.426862723192736,0.48047556999802354,7.379535256915853,-3.102955666325569
9.431667478892717,0.4110775515973686,7.348505700252597,-3.2199126183412923
9.43577825440869,0.33701354937244316,7.316306574069183,-3.340493451682144
9.439148389902416,0.2580491112477944,7.282901639552362,-3.464881244203402
9.441728881014894,0.17396341697832104,7.248252827110328,-3.5932390194612474
9.443468515184678,0.08455702863439161,7.212320436915715,-3.7257008080367213
9.444314085471023,-0.010338495334769701,7.175063428835348,-3.862360804901055
9.444210700517674,-0.11084887818181917,7.136439820786338,-4.003260396566651
9.443102211735855,-0.2170430855449062,7.096407216820671,-4.148372877287975
9.440931780880407,-0.32891683264855676,7.054923488047791,-4.2975857614304225
9.43764261255392,-0.44637362883947146,7.011947630433487,-4.450680744577315
9.433178876265526,-0.569203547012039,6.967440822987713,-4.607311585624356
9.427486840795405,-0.6970601880383591,6.92136770713147,-4.76698049164327
9.420516238915022,-0.8294366905360178,6.873697902215037,-4.929013997103825
9.412221872009662,-0.9656421159382869,6.8244077622439985,-5.092539837846443
9.402565450850279,-1.1047801013030842,6.773482363865534,-5.256466906151722
9.391517649837247,-1.2457322727650588,6.720917694804016,-5.4194709835283135
9.379060327109597,-1.3871494682166703,6.666722984968733,-5.579989488954456
9.36518883242743,-1.527454202455411,6.610923090079189,-5.736228813579883
9.349914290402875,-1.6648578564345737,6.55356080194339,-5.886187761427428
9.33326571183853,-1.7973956015301593,6.494698924329116,-6.027699990008841
9.315291755823228,-1.9229809225596284,6.434421924429028,-6.158496992172669
9.296061946597632,-2.0394797115682595,6.372836954507301,-6.276291034405005
9.275667149481949,-2.1448013605395846,6.310074044163251,-6.378874701376442
9.254219135876554,-2.237001390250577,6.246285297149487,-6.464230655376989
9.231849121974047,-2.3143874301185168,6.181642990595717,-6.5306424805670575
9.208705247672862,-2.3756184516477146,6.116336565790046,-6.5767957324334345
9.184949063156385,-2.4197866563298986,6.050568608465712,-6.601858157185353
9.160751196593086,-2.4464726806621937,5.984550026893858,-6.60552978627612
9.136286469786464,-2.4557677477193036,5.918494729031097,-6.5880570884245335
9.111728792309272,-2.4482605562598065,5.852614158146851,-6.550209942646085
9.087246186746674,-2.424991215078151,5.78711205872039,-6.493224938472999
9.062996274595893,-2.387378480254261,5.7221798093356595,-6.418722445428812
9.03912248979335,-2.3371292043961764,5.657992584881371,-6.328607315701952
9.015751197749388,-2.27613990748999,5.594706511724351,-6.224963720546321
8.992989798674488,-2.206399797767066,5.532456874518888,-6.109953645308325
8.970925800696817,-2.129902803235971,5.471357338065805,-5.985726465531346
8.949626772664457,-2.0485737705825637,5.411500073410491,-5.854344400698125
8.929141034958631,-1.9642114838037052,5.35295662940351,-5.717726039574845
8.909498920120594,-1.8784489556369555,5.295779369007761,-5.577607936282225
8.890714430564225,-1.7927297804247606,5.240003289644939,-5.4355226825675045
8.872787132759978,-1.7082982743677688,5.185648062819264,-5.292790899145685
8.855704150016301,-1.6262006169031689,5.132720153827807,-5.150524177660738
8.83944214384727,-1.5472941285907957,5.0812149120512,-5.0096360112185145
8.823969202561361,-1.4722620393841528,5.031118551939015,-4.870858031829282
8.80924658216752,-1.40163148941331,4.982409971620722,-4.734759300735512
8.795230267273386,-1.3357929610162576,4.935062378613367,-4.601766875197921
8.781872337663224,-1.275019794593997,4.889044709861388,-4.472186337031283
8.769122139717284,-1.2194868486572452,4.844322846491075,-4.346221375674363
8.756927271230712,-1.1692877050190509,4.800860632734331,-4.223991854545765
8.745234394180521,-1.124450087891543,4.758620714188873,-4.105550050957934
8.733989893301606,-1.0849493648034785,4.717565213679293,-3.9908949526786577
8.723140399653571,-1.050720137030904,4.677656264152507,-3.8799846284320005
8.712633198283262,-1.0216660188039017,4.638856417868187,-3.7727467767066942
8.702416538095223,-0.9976677589968691,4.60112895010112,-3.669087608277557
8.692439860505255,-0.9785898862080664,4.564438074018344,-3.5688992425849015
8.682653961643174,-0.9642860662984853,4.528749081592495,-3.4720658045788833
8.673011100980188,-0.9546033570608475,4.494028423546706,-3.378468403102314
8.66346506740958,-0.9493855325996452,4.4602437395156835,-3.2879891590703294
8.653971212083585,-0.9484756337418252,4.427363847924981,-3.200514435006339
8.644486455746167,-0.9517178827995108,4.395358703574917,-3.1159373992609853
8.634969276918172,-0.9589590828740417,4.364199329582307,-3.0341600400240667
8.625379686089431,-0.9700496046140813,4.333857729182067,-2.9550947269988264
8.61567919004329,-0.9848440474725411,4.304306781912079,-2.878665402884413
8.605830749568565,-1.0032016483014778,4.275520127883235,-2.80480847285816
8.59579873308555,-1.0249864976386345,4.247472043154653,-2.7334734481267096
8.585548868109164,-1.0500676132101578,4.220137308673387,-2.664623389266314
8.575048191977062,-1.0783189108684765,4.193491074780724,-2.5982351863701036
8.564265002868378,-1.1096191052363626,4.167508722917023,-2.5342997057993824
8.553168811816015,-1.1438515655619945,4.142165725859029,-2.4728218274181852
8.541730296160395,-1.1809041465342873,4.117437507584848,-2.413820391395585
8.529921254695052,-1.220669008904945,4.093299303670892,-2.3573280698160874
8.517714564606003,-1.2630424405730598,4.0697260229727314,-2.3033911752838034
8.505084140200273,-1.307924685187993,4.046692111219893,-2.252069416293427
8.492004893348392,-1.3552197822136351,4.024171417056959,-2.203435607236523
8.478452695526256,-1.4048354196861752,4.002137060984594,-2.1575753393950605
8.464404341329395,-1.4566827985178827,3.980561307590643,-2.114586618037846
8.449837513344216,-1.5106765050940987,3.9594154414102647,-2.074579469683769
8.434730748293275,-1.566734387033986,3.938669646713427,-2.03767552264369
