th1 (rad),w1 (rad/s),th2 (rad),w2 (rad/s),a1 (rad/s^2),a2 (rad/s^2)
4.716658052942329,0.6938818146332141,1.935112385617899,2.5406703302639713,7.930313595692507,-1.5653478388072066
4.723596871088661,0.7731849505901391,1.9605190889205386,2.525016851875899,7.940186687750952,-1.4660879069789334
4.731328720594563,0.8525868174676486,1.9857692574392976,2.5103559728061096,7.964814779216933,-1.3395090249317088
4.73985458876924,0.932234965259818,2.0108728171673587,2.4969608825567926,8.002664343621479,-1.1866944205313514
4.749176938421838,1.0122616086960328,2.0358424259929264,2.485093938351479,8.052238447120036,-1.0086704374651787
4.759299554508798,1.0927839931672332,2.060693365376441,2.4750072339768274,8.112093038080449,-0.8063874453116997
4.770227394440471,1.1739049235480377,2.0854434377162097,2.4669433595237105,8.180845061683799,-0.5807116210747485
4.781966443675951,1.2557133741648756,2.110112871311447,2.461136243312963,8.257174164479055,-0.33242507837109164
4.7945235774176,1.3382851158096662,2.1347242337445764,2.457811992529252,8.33981948499152,-0.06223223883135795
4.807906428575697,1.4216833106595814,2.159302353669869,2.4571896701409384,8.427572757354394,0.2292292544760147
4.822123261682292,1.5059590382331254,2.1838742503712782,2.4594819626856985,8.519268707959657,0.5413744171706433
4.837182852064624,1.5911517253127219,2.2084690699981353,2.464895706857405,8.613773511714843,0.8736546216289515
4.853094369317751,1.6772894604298703,2.2331180270667095,2.4736322530736943,8.709971898679084,1.2255398829108697
4.86986726392205,1.764389179416661,2.2578543495974466,2.485887651902803,8.806753363087955,1.596500302245164
4.887511155716217,1.8524567130475407,2.2827132261164746,2.5018526549252544,8.902997821926528,1.9859870863536688
4.906035722846692,1.9414866912668058,2.307731752665727,2.521712525788791,8.997560994880336,2.3934134514935717
4.92545058975936,2.0314623012156092,2.332948877923615,2.545646660303727,9.089259726852786,2.8181356466606426
4.945765212771517,2.122354898484137,2.3584053445266524,2.5738280167703333,9.176857443488307,3.2594342841309993
4.966988761756358,2.2141234729190202,2.3841436246943557,2.6064223596116434,9.259049914745662,3.7164961411103716
4.9891299964855484,2.306713972066477,2.4102078482904723,2.643587321022747,9.33445149733566,4.1883965879021945
5.012197136206213,2.4000584870398334,2.4366437215006997,2.685471286901769,9.401582029934866,4.674082800335748
5.036197721076611,2.494074307339182,2.4634984343697175,2.732212114905127,9.458854562009153,5.172357922196798
5.0611384641500035,2.5886628529592737,2.4908205555187686,2.783935694127095,9.504564104650242,5.6818663523338
5.087025092679596,2.683708494005776,2.5186599124600395,2.840754357650433,9.536877597216534,6.2010803364944715
5.113862177619654,2.7790772699779414,2.547067456036544,2.9027651610153775,9.553825284379556,6.728288041642662
5.1416529503194335,2.874615522821737,2.576095107646698,2.970048041431804,9.553293692587898,7.261583276905655
5.170399105547651,2.970148459747616,2.605795588061016,3.0426638742008607,9.533020381944592,7.798856997644112
5.200100590145127,3.065478663567062,2.6362222268030244,3.120652444177302,9.490590629101307,8.337790685942169
5.230755376780798,3.160384569858075,2.6674287512447976,3.2040303510367236,9.423436170467589,8.875851642450375
5.262359222479379,3.2546189315627507,2.699469054755165,3.2927888674612276,9.32883610605476,9.410290153838483
5.294905411795006,3.3479072926232982,2.7323969434297775,3.3868917689996123,9.203920037977541,9.93813842316238
5.328384484721239,3.4399464930030734,2.7662658611197735,3.4862731532312363,9.04567350175634,10.456211077072819
5.36278394965127,3.5304032280206368,2.801128592652086,3.5908352640019645,8.850945753308954,10.961107008154631
5.398087981931476,3.618912685553726,2.8370369452921054,3.700446334083511,8.61646001241627,11.449212291463201
5.434277108787013,3.7050772856778886,2.8740414086329404,3.814938456998143,8.338826348783023,11.91670395446776
5.471327881643792,3.7884655491657186,2.912190793202922,3.934105496542821,8.014557544595034,12.359554505447571
5.50921253713545,3.868611124611669,2.95153184816835,4.057701041597297,7.6400884916991645,12.773537364884406
5.547898648381566,3.9450120095286607,2.9921088585843227,4.185436415246141,7.211799992699806,13.154233724352117
5.587348768476853,4.017130009455658,3.033963222736784,4.316978752489662,6.726048236958409,13.497041899372656
5.6275200685714095,4.084390491825243,3.0771330102616807,4.451949171483389,6.179201706983723,13.797190957476714
5.668363973489662,4.14618250889508,3.1216525019765147,4.589921081058156,5.567687813680601,14.049761283281729
5.7098257985786125,4.201859387031886,3.167551712787096,4.730418693890973,4.8880521134318915,14.24971575560257
5.751844392448931,4.250739908166206,3.2148558997260057,4.872915851446999,4.137033450287069,14.391946288715172
5.794351791530594,4.292110242669076,3.2635850582404755,5.016835314334151,3.3116586828355223,14.47134151731283
5.837272893957285,4.325226829497431,3.313753411383817,5.161548729507279,2.409360651121546,14.482882216425645
5.880525162252259,4.349320436008647,3.3653688986788897,5.3063775516715355,1.428122533354906,14.421771422246842
5.924018366612346,4.363601661342195,3.418432674195605,5.450595265894004,0.3666505308861129,14.283605886348685
5.967654383225768,4.367268166651057,3.472938626854545,5.59343132475749,-0.7754253015414475,14.064594152739714
6.011327064892279,4.3595139136356424,3.5288729401021195,5.734077266284888,-1.9973254603156976,13.76182390134422
6.054922204028635,4.339540659032486,3.5862137127649683,5.87169550529833,-3.2968783543478066,13.37357702960558
6.0983176106189605,4.306571875489007,3.6449306678179516,6.005431275594386,-4.670273733361737,12.899685178698833
6.14138332937385,4.25986913815539,3.7049849805738955,6.1344281273813746,-6.111831381236388,12.341911243288415
6.183982020755404,4.198750824343026,3.766329261847709,6.257847239814259,-7.613810403551969,11.704334384271025
6.225969528998834,4.122612720307506,3.8289077342458517,6.37489058365697,-9.166289620811193,10.993708170654669
6.267195656201909,4.030949824099395,3.8926566400824214,6.484827665363516,-10.75715254167251,10.219755109182922
6.307505154442903,3.9233782986826693,3.9575049167360565,6.587025216455346,-12.372209748145002,9.395357674788805
6.34673893742973,3.7996562012012194,4.02337516890061,6.680978793203233,-13.995486061263557,8.536607753721398
6.384735499441742,3.6597013405885837,4.090184956832642,6.766344870740447,-15.609688904297055,7.662684496319313
6.421332512847628,3.503604451545613,4.157848405540046,6.84297171570364,-17.196858116590363,6.795545436456687
6.456368557363084,3.3316358703797095,4.2262781226970825,6.910927170068207,-18.73917759498961,5.9594365934880775
6.4896849160668815,3.1442440944298133,4.295387394397765,6.970521536003088,-20.219908303379107,5.180251905555083
6.52112735701118,2.942045011396022,4.365092609757796,7.022324055058639,-21.62438406379571,4.484797266874951
6.55054780712514,2.725801170758065,4.435315850308382,7.067172027727389,-22.94100001331399,3.900035528908247
6.57780581883272,2.4963911706249253,4.505987570585656,7.106172383016471,-24.162121859452615,3.452402250814575
6.60276973053897,2.254769952030399,4.577049294415821,7.140696405524617,-25.284853670284598,3.167285253082033
6.625317430059274,2.001921415327553,4.648456258471067,7.172369258055437,-26.311622307783175,3.068753753542745
6.645336644212549,1.7388051922497212,4.720179951051621,7.203056795590864,-27.250564997979126,3.179607006390716
6.662724696135046,1.4662995422699299,4.79221051900753,7.234852865654772,-28.115738570608908,3.521791781345772
6.677387691557746,1.1851421565638407,4.864559047664078,7.270070783468229,-28.92719955858716,4.117217405223889
6.689239113123384,0.8958701609779691,4.9372597554987605,7.311242957520468,-29.711028778338605,4.988980474958914
6.698197814733164,0.5987598731945831,5.010372185073965,7.361132762270057,-30.49938783492172,6.163000312633522
6.70418541346511,0.2937659948453659,5.0839835126966655,7.422762765396392,-31.33069334752335,7.670057532383035
6.707123073413563,-0.01954093862986761,5.158211140350629,7.499463340720222,-32.249969145698365,9.548209705779762
6.706927664027265,-0.34204063008685126,5.233205773757832,7.59494543777802,-33.3093682542637,11.845500915383353
6.703507257726396,-0.6751343126294883,5.309155228135612,7.713400446931853,-34.568700610473364,14.622720873382574
6.696755914600101,-1.0208213187342219,5.3862892326049305,7.859627655665679,-36.09545664251467,17.95556011265776
6.686547701412759,-1.3817758851593687,5.464885509161587,8.039183256792256,-37.96304994125108,21.934530163022384
6.6727299425611655,-1.7614063845718795,5.54527734172951,8.25852855842248,-40.2443016332042,26.658761115616503
6.6551158787154465,-2.1638494009039215,5.627862627313735,8.525116169578645,-42.99344703623704,32.214708589558946
6.633477384706407,-2.593783871266292,5.713113789009521,8.847263255474234,-46.201911704246,38.61972885951272
6.6075395459937445,-3.055802988308752,5.801586421564263,9.233460544069361,-49.69692693162384,45.68790068007123
6.576981516110657,-3.5527722576249907,5.893921027004956,9.690339550870073,-52.92469164253728,52.73667753199546
6.541453793534408,-4.082019174050363,5.990824422513657,10.217706326190028,-54.537724191377706,58.01970529990355
6.500633601793904,-4.6273964159641405,6.093001485775557,10.797903379189062,-51.80341315997476,57.90015321587758
6.454359637634263,-5.145430547563889,6.200980519567447,11.376904911347838,-40.446964804310554,46.597006320248404
6.402905332158624,-5.549900195606994,6.314749568680925,11.842874974550321,-16.95087860044965,19.287581107898163
6.347406330202554,-5.71940898161149,6.433178318426428,12.035750785629302,15.290603214262793,-19.501121809743022
6.290212240386439,-5.5665029494688625,6.5535358262827215,11.840739567531871,43.70895500910991,-52.884960620586575
6.23454721089175,-5.129413399377763,6.67194322195804,11.311889961326006,58.176399002261164,-67.55894383092622
6.183253076897973,-4.547649409355151,6.7850621215713005,10.636300523016743,60.234564528251106,-66.0749210290583
6.137776582804421,-3.9453037640726403,6.891425126801468,9.97555131272616,56.383744765776186,-57.36628960910599
6.098323545163695,-3.3814663164148784,6.9911806399287295,9.401888416635101,51.05940901973102,-47.302782825154864
6.064508881999546,-2.870872226217568,7.0851995240950805,8.928860588383552,46.08206712590052,-38.16046050791804
6.035800159737371,-2.410051554958563,7.174488129978916,8.547255983304371,41.949346958504684,-30.46561760052764
6.011699644187785,-1.9905580853735159,7.25996068981196,8.242599807299095,38.67194717943675,-24.13716244594021
5.99179406333405,-1.6038386135791485,7.342386687884951,8.001228182839693,36.121382301106756,-18.94537594757128
5.975755677198258,-1.242624790568081,7.422398969713348,7.81177442336398,34.15050072281862,-14.662623065935113
5.963329429292577,-0.9011197833398947,7.500516713946988,7.6651481927046285,32.62860045604673,-11.102121698042517
5.954318231459179,-0.5748337787794273,7.577168195874034,7.554126975724204,31.447626285231834,-8.120687692351892
5.948569893671384,-0.260357515927109,7.6527094656312755,7.472920098800685,30.519738283621,-5.6118003360014495
5.945966318512113,0.04483986690910102,7.727438666619283,7.416802095440671,29.77312132382716,-3.497420950325359
5.946414717181204,0.34257108014737264,7.801606687573689,7.381827885937417,29.14816944634097,-1.7208844228908542
5.949840427982678,0.6340527746107824,7.875424966433063,7.364619041708509,28.594566742628903,-0.24121466081843004
5.956180955728786,0.9199984420370714,7.949071156850148,7.362206895100325,28.069270834649515,0.9713399149655807
5.965380940149156,1.2006911503835664,8.02269322580115,7.371920294249981,27.535262985907185,1.9388450944125293
5.977387851652992,1.4760437802426383,8.096412428743651,7.391308745194106,26.960904641279242,2.678539171510241
5.992148289455418,1.7456528266554308,8.170325516195593,7.418094136909208,26.319745523669347,3.2051765543799715
6.009604817721972,2.008850281892124,8.244506457564684,7.450145902453008,25.590635717992555,3.532946965772511
6.029693320540893,2.2647566390720497,8.319007916589214,7.485475372110733,24.757998169583427,3.677000136595151
6.0523408869316135,2.512336620767884,8.393862670310321,7.522245373476685,23.81212167018294,3.654564746247086
6.077464253139293,2.7504578374697135,8.469085124045089,7.558791020939156,22.749343206241807,3.4856306563239587
6.10496883151399,2.9779512695321317,8.54467303425448,7.593647327502395,21.572007634973875,3.193166019272254
6.134748344209311,3.1936713458818704,8.620609507529503,7.625578987695118,20.288124808989828,2.802863990920012
6.16668505766813,3.3965525939717685,8.696865297406454,7.653607627604318,18.910688574712687,2.3424524714677553
6.200650583607848,3.5856594797188954,8.773401373682496,7.677032152318995,17.45667352639024,1.8406459666622392
6.236507178405037,3.7602262149827976,8.850171695205686,7.695438611985618,15.945775793662774,1.3258604930297737
6.274109440554865,3.9196839729194255,8.927126081325543,7.708697216915915,14.399004117915712,0.8248398908688899
6.313306280284059,4.0636740140985825,9.004213053494702,7.716945615824605,12.837249235024265,0.3613475477870714
6.353943020425045,4.1920465064488255,9.081382509652949,7.7205590913024755,11.279959299677563,-0.04494066868206303
6.395863485489533,4.3048460994456015,9.158588100565973,7.720109684615655,9.744028076018864,-0.3792445928668689
6.438911946483989,4.4022863802057906,9.23578919741213,7.716317238686986,8.24296684963407,-0.6321408266617585
6.482934810286047,4.484716048702131,9.312952369799,7.709995830420368,6.786389178899027,-0.7996786543655112
6.527781970773068,4.552579940491121,9.390052328103204,7.701999043876713,5.379798553857858,-0.8831941807431025
6.57330777017798,4.606377926029699,9.467072318541971,7.693167102069282,4.024639550911817,-0.8888924605311737
6.619371549438277,4.646624321538818,9.544003989562665,7.68427817746397,2.7185566428682093,-0.82727674612832
6.665837792653665,4.6738098879675,9.620846771337304,7.676005410002687,1.4558015683915728,-0.7124980261616221
6.71257589153334,4.688367903651415,9.697606825437331,7.668880429741071,0.22773766739968385,-0.5616809028188494
6.759459570569854,4.690645280325413,9.774295629734741,7.663263620712883,-0.9765959158802268,-0.3942585972200352
6.8063660233731085,4.680879321166611,9.85092826594187,7.659321034740683,-2.1698798106284594,-0.23132521788950208
6.853174816584775,4.659180523060326,9.927521476289277,7.657007782561788,-3.365872639997332,-0.09499119855982784
6.899766621815378,4.625521796660353,10.004091554114895,7.6560578705761895,-4.57872156181266,-0.007710841753844582
6.946021839781982,4.579734581042226,10.080652132820656,7.655980762158651,-5.822207532435634,0.008458681820649344
6.991819185592404,4.52151250571787,10.157211940442243,7.656065348976858,-7.108908173369774,-0.06729204505857489
7.037034310649583,4.450423423984172,10.233772593932011,7.655392428526272,-8.449270778846483,-0.2535337177441595
7.081538544889424,4.365930716195707,10.310326518217273,7.652857091348831,-9.850607655660609,-0.5654586804971911
7.1251978520513815,4.267424639639101,10.386855089130762,7.647202504543859,-11.316055263290105,-1.0136190821566002
7.167872098447773,4.1542640870062,10.4633271141762,7.637066313722293,-12.843575104974445,-1.6026145667706602
7.209414739317834,4.025828335956455,10.539697777313423,7.621040168054587,-14.42511263526216,-2.3298519314685806
7.249673022677399,3.881577209603834,10.615908178993969,7.597741648739901,-16.04606180879585,-3.184545829693924
7.288488794773437,3.7211165915158753,10.691885595481368,7.565896190442961,-17.685195755771048,-4.147158852863229
7.325699960688596,3.5442646339581647,10.767544557385797,7.524424601914329,-19.315206495791884,-5.189476182567749
7.361142607028178,3.3511125690002457,10.84278880340494,7.472529840088652,-20.903940392018963,-6.275462348796951
7.39465373271818,3.142073165080056,10.917514101805827,7.409775216600682,-22.4163216892678,-7.362952147127317
7.42607446436898,2.9179099481873783,10.991611853971833,7.336145695129409,-23.816836874706592,-8.406095039380677
7.455253563850854,2.6797415794403125,11.064973310923127,7.252084744735603,-25.072332989759257,-9.358328062097051
7.4820509796452574,2.42901824954272,11.137494158370483,7.158501464114632,-26.15479544479205,-10.17553219780511
7.506341162140685,2.1674702950947995,11.209079173011629,7.056746142136581,-27.043743936200375,-10.818966419232908
7.528015865091633,1.8970328557327958,11.279646634432995,6.948556477944252,-27.727932668910483,-11.257593598534255
7.546986193648961,1.6197535290436909,11.349132199212438,6.83598054195891,-28.20615560108648,-11.469511631241318
7.563183728939398,1.337691973032826,11.417492004632027,6.721285425646497,-28.487110945320197,-11.442356289580365
7.576560648669727,1.0528208635796241,11.484704858888492,6.606861862750693,-28.588433043601377,-11.17270946177502
7.587088857305523,0.7669365331436103,11.550773477515998,6.495134768132943,-28.535118103939617,-10.664686853190839
7.594758222636959,0.48158535210421416,11.615724825197328,6.388487899601035,-28.35763136481456,-9.927964660089252
7.599574076158001,0.19800903845606854,11.679609704193338,6.289208253000142,-28.08998402200778,-8.975526038362238
7.601554166542562,-0.08289080176400926,11.74250178672334,6.19945299261652,-27.768021691387837,-7.821374086875076
7.600725258524922,-0.36057101867788766,11.804496316649505,6.1212392517477685,-27.42809377255279,-6.478388174146004
7.597119548338143,-0.6348519564034156,11.865708709166983,6.056455370006309,-27.106196594219245,-4.9564168175168275
7.590771028774109,-0.9059139223456081,11.926273262867046,6.006891201831141,-26.83761890429315,-3.2606209443978265
7.581711889550652,-1.1742901113885396,11.986342174885356,5.974284992387163,-26.657074488114514,-1.39001715676251
7.5699689884367665,-1.4408608562696847,12.046085024809228,5.960384820819537,-26.599284413326608,0.6638740677832146
7.55556037987407,-1.706853700402951,12.105688873017424,5.96702356149737,-26.69996578070424,2.918394854866086
7.53849184287004,-1.9738533582099933,12.165359108632398,5.99620751004603,-26.99718531720324,5.401253720607769
7.51875330928794,-2.243825211382026,12.225321183732857,6.050220047252108,-27.533028906116332,8.152261891186004
7.49631505717412,-2.519155500443189,12.28582338420538,6.1317426661639685,-28.355493801303073,11.225311444723811
7.471123502169688,-2.80271043845622,12.34714081086702,6.243995780611207,-29.52037112952831,14.690388531239128
7.443096397785125,-3.097914149751503,12.40958076867313,6.390899665923598,-31.092526834966833,18.634900094039132
7.41211725628761,-3.4088394181011714,12.473489765332367,6.57724866686399,-33.14512937883437,23.162392336509313
7.378028862106598,-3.7402907118895152,12.539262252001008,6.8088725902290825,-35.75338712466562,28.3839824928945
7.340625954987703,-4.0978245831361715,12.607350977903298,7.092712415158028,-38.97488404814795,34.39160233597412
7.299647709156342,-4.4875734236176505,12.678278102054879,7.436628438517769,-42.79886150160702,41.188551552034056
7.254771974920166,-4.915562038633721,12.752644386440057,7.8485139540381095,-47.02714202871726,48.52528938131286
7.205616354533829,-5.385833458920893,12.831129525980439,8.333766847851239,-51.017172365055245,55.54285658990779
7.15175801994462,-5.896005182571446,12.91446719445895,8.889195413750317,-53.199520531008986,60.09944834381878
7.092797968118906,-6.428000387881536,13.003359148596454,9.490189897188504,-50.44145573150704,57.87512908636105
7.02851796424009,-6.932414945196606,13.09826104756834,10.068941188052115,-38.1484753680484,42.49256895255369
6.959193814788124,-7.31389969887709,13.198950459448861,10.493866877577652,-13.550437406853243,10.066037539101794
6.886054817799353,-7.449404072945622,13.303889128224638,10.59452725296867,17.550831471736995,-31.43161542352334
6.811560777069897,-7.273895758228252,13.409834400754324,10.280211098733435,41.43958305685819,-63.11628316904414
6.738821819487615,-6.85949992765967,13.512636511741658,9.649048267042994,50.581855682823225,-74.73553455558944
