th1 (rad),w1 (rad/s),th2 (rad),w2 (rad/s)
1.8534808201126904,-0.18449203398892586,1.3865811780731858,-2.527530523593184
1.851635899772801,-0.29349088146569446,1.361305872837254,-2.526386691205226
1.8487009909581442,-0.4033098935177349,1.3360420059252018,-2.5249586240611284
1.8446678920229669,-0.5140537814378271,1.3107924196845906,-2.5229657705556217
1.8395273542085886,-0.6258273028378428,1.2855627619790344,-2.5201079092737264
1.8332690811802101,-0.7387328155546958,1.2603616828862971,-2.516067940798955
1.8258817530246632,-0.8528683887736671,1.2352010034783076,-2.5105139946696906
1.8173530691369264,-0.9683264061798273,1.2100958635316108,-2.503100997977781
1.807669805075128,-1.0851926056562549,1.1850648535518329,-2.4934718406561074
1.7968178790185656,-1.203545511411201,1.1601301351452717,-2.481258258625146
1.7847824239044536,-1.3234562257678948,1.1353175525590202,-2.4660815418101802
1.7715478616467746,-1.4449885581040844,1.1106567371409184,-2.447553160885471
1.7570979760657337,-1.568199476853868,1.0861812055320637,-2.425275395205488
1.741415981297195,-1.6931398765325827,1.0619284515800087,-2.398842035239423
1.724484582531869,-1.8198556549101164,1.0379400312276146,-2.3678392263777703
1.706286025982768,-1.9483890951614,1.0142616389638368,-2.3318465178068153
1.686802135031154,-2.078780543309984,0.9909431737857687,-2.2904381811357384
1.666014329598054,-2.211070361504043,0.9680387919744113,-2.2431848699984167
1.6439036259830135,-2.345301121142386,0.9456069432744272,-2.1896557060526023
1.6204506147715896,-2.4815199744972882,0.9237103862139011,-2.129420901797996
1.5956354150266168,-2.6197811062766125,0.9024161771959212,-2.062055070971589
1.5694376039638507,-2.7601481133099877,0.8817956264862052,-1.9871414394033613
1.5418361228307509,-2.9026960853021944,0.8619242120921716,-1.904277262139014
1.5128091619777289,-3.0475130541199604,0.8428814394707815,-1.8130808887309333
1.4823340314365292,-3.1947003320727783,0.8247506305834722,-1.7132011144896824
1.4503870281158013,-3.3443710560628754,0.8076186194385754,-1.6043297328429897
1.4169433175551727,-3.496645975116627,0.7915753221101455,-1.4862185896541493
1.3819768578040064,-3.6516451410156057,0.7767131362136039,-1.358702964950996
1.3454604063938502,-3.809473662768844,0.763126106564094,-1.2217337995622692
1.3073656697661618,-3.97019905182854,0.7509087685684712,-1.0754221559087105
1.2676636792478764,-4.133816932411268,0.7401545470093841,-0.9201003183383295
1.2263255099237638,-4.300201108230652,0.7309535438260008,-0.7564049538506608
1.1833234988414572,-4.469033401673509,0.7233894942874941,-0.5853884005547876
1.138633164824722,-4.639708832312977,0.7175356102819462,-0.40866365096803087
1.0922360765015924,-4.811213560659658,0.7134489737722659,-0.22858550366929614
1.0441239408949958,-4.981978215725327,0.7111631187355729,-0.04846230880569327
0.9943041587377426,-5.149719982039097,0.710678495647516,0.1272234632551056
0.9428069589173516,-5.311305205755496,0.7119507302800671,0.2926348157251813
0.8896939068597965,-5.462689815798062,0.7148770784373188,0.4405262861775261
0.8350670087018159,-5.599019949707201,0.7192823412990941,0.5624388707154345
0.779076809204744,-5.714980029641506,0.7249067300062484,0.6492720437607129
0.721927008908329,-5.805429969896014,0.7313994504438556,0.6922927132268772
0.6638727092093688,-5.866257493174189,0.7383223775761243,0.6844696987369332
0.6052101342776269,-5.895216665437323,0.7451670745634936,0.6217932523672054
0.5462579676232537,-5.892431901659971,0.7513850070871657,0.5041010367730623
0.487333648606654,-5.860329112401002,0.7564260174548963,0.3350481946370479
0.428730357482644,-5.803005502840393,0.7597764994012668,0.12122317567455776
0.37070030245424007,-5.72530249056907,0.7609887311580124,-0.12921350326286152
0.3134472775485494,-5.631925863007204,0.7596965961253838,-0.4078623882924059
0.25712801891847736,-5.52684501917782,0.7556179722424597,-0.7070383739573443
0.20185956872669916,-5.413023486959973,0.7485475885028863,-1.020251276639323
0.14772933385709944,-5.292407641563187,0.738345075736493,-1.3423073630725295
0.09480525744146756,-5.166062863936974,0.7249220021057677,-1.669187092441872
0.04314462880209782,-5.0343654312637796,0.708230131181349,-1.9978320722766627
-0.007199025510539976,-4.8971943113645375,0.6882518104585824,-2.3259248384165754
-0.05617096862418535,-4.754097228932151,0.6649925620744167,-2.6517017178921036
-0.10371194091350686,-4.604423980488818,0.6384755448954956,-2.973811276392675
-0.14975618071839503,-4.44742901170694,0.6087374321315688,-3.291216560946675
-0.19423047083546444,-4.282348465605848,0.5758252665221021,-3.6031335693530124
-0.23705395549152292,-4.108457228831731,0.539793930828572,-3.908997015161359
-0.2781385277798402,-3.925110744297241,0.5007039606769583,-4.208444971226431
-0.3173896352228126,-3.7317754479546776,0.458619510964694,-4.501315030834805
-0.3547073897023594,-3.5280510434368026,0.41360636065634593,-4.787645599298715
-0.3899879001367274,-3.313687620185109,0.36572990466335875,-5.067676544009708
-0.4231247763385785,-3.0886009214390895,0.31505313922326167,-5.341843538374839
-0.45401078555296936,-2.8528899347683336,0.26163470383951326,-5.610759895424667
-0.4825396849006527,-2.606862486332564,0.2055271048852666,-5.875178315307505
-0.5086083097639783,-2.3510767669887027,0.14677532173219154,-6.1359225337859336
-0.5321190774338653,-2.0864097624791933,0.0854160963943322,-6.3937751477342095
-0.5529831750586572,-1.8141672456806486,0.021478344916990105,-6.649302960036312
-0.5711248475154638,-1.536253517261514,-0.045014684683373024,-6.902595919908757
-0.5864873826880789,-1.2554201040952326,-0.1140406438824606,-7.15289310014591
-0.5990415837290312,-0.9756056171213696,-0.1855695748839197,-7.3980764498688085
-0.6087976399002448,-0.7023530489390907,-0.2595503393826078,-7.634045036066948
-0.6158211703896357,-0.44322900106904906,-0.3358907897432773,-7.85406262647904
-0.6202534604003261,-0.20805623739914575,-0.4144314160080677,-8.048322178249178
-0.6223340227743176,-0.008622058254002196,-0.4949146377905595,-8.20417381439868
-0.6224202433568576,0.14255547292548224,-0.5769563759345463,-8.307580122791126
-0.6209946886276028,0.23460831473233437,-0.6600321771624575,-8.346090480673361
-0.6186486054802794,0.26135992180788414,-0.7434930819691912,-8.312712282824346
-0.6160350062622006,0.2236657687641978,-0.8266202047974347,-8.208893837267354
-0.6137983485745586,0.129565651932788,-0.9087091431701082,-8.044674608308695
-0.6125026920552308,-0.008024959115802727,-0.9891558892531952,-7.835681595231486
-0.6125829416463888,-0.17475796252563036,-1.06751270520551,-7.598751072590024
-0.6143305212716451,-0.3576928283415932,-1.1435002159314103,-7.348439620788554
-0.617907449555061,-0.5466968930977201,-1.2169846121392958,-7.095451635504431
-0.6233744184860383,-0.7346021776854037,-1.28793912849434,-6.846653784799152
-0.6307204402628923,-0.9167124954915654,-1.3564056663423316,-6.60586549890187
-0.639887565217808,-1.0901432899544556,-1.4224643213313504,-6.3747980317890445
-0.6507889981173526,-1.2532370370374886,-1.4862123016492408,-6.153844958319717
-0.6633213684877275,-1.4051258954777803,-1.547750751232438,-5.942651289590414
-0.6773726274425053,-1.545432986889793,-1.6071772641283422,-5.74048748177399
-0.6928269573114032,-1.6740794171569178,-1.664582138946082,-5.546480171328184
-0.7095677514829724,-1.7911642448300003,-1.720046940659364,-5.359746931595237
-0.7274793939312724,-1.8968919781488685,-1.7736444099753164,-5.179470079863769
-0.7464483137127611,-1.9915299079446585,-1.825439110773954,-5.004933104668833
-0.7663636127922077,-2.0753836345545063,-1.8754884418206423,-4.835534770806061
-0.7871174491377527,-2.1487833768223767,-1.923843789528703,-4.670790236109237
-0.8086052829059764,-2.212076448514563,-1.9705516918897954,-4.5103248625296875
-0.8307260473911221,-2.2656230841081153,-2.015654940515092,-4.353864143707202
-0.8533822782322033,-2.3097939318020515,-2.0591935819521643,-4.201221797221638
-0.8764802175502238,-2.3449682430934238,-2.1012057999243807,-4.052287243493857
-0.899929899981158,-2.3715322304772686,-2.1417286723593194,-3.90701319908171
-0.9236452222859307,-2.389877336724759,-2.1807988043501365,-3.765403816311435
-0.9475439956531783,-2.400398323113185,-2.218452842513251,-3.627503622644254
-0.9715479788843101,-2.403491179135457,-2.2547278787396934,-3.4933874033153955
-0.9955828906756646,-2.3995509074179107,-2.2896617527728473,-3.363151100923869
-1.0195783997498438,-2.388969260718857,-2.323293263782086,-3.2369037591579173
-1.0434680923570323,-2.372132513320273,-2.3556623013736653,-3.114760505265898
-1.067189417490235,-2.3494193437286772,-2.386809906426324,-2.9968365420066148
-1.0906836109275218,-2.3211988939967876,-2.41677827184639,-2.8832421018451333
-1.1138955998674895,-2.28782905631324,-2.4456106928648413,-2.7740783026477596
-1.136773890430622,-2.2496550219203946,-2.473351475891319,-2.669433834314577
-1.159270440649826,-2.2070081123326797,-2.500045814234465,-2.5693823992311637
-1.1813405217731527,-2.160204899144875,-2.5257396382267765,-2.4739808257994422
-1.2029425707646015,-2.109546606965009,-2.550479446484771,-2.3832677733105805
-1.2240380368342516,-2.0553187844237994,-2.574312124217877,-2.2972629477121504
-1.2445912246784896,-1.9977912208426667,-2.597284753694998,-2.2159667510250474
-1.2645691368869163,-1.93721808088495,-2.6194444212052486,-2.139360291887905
-1.2839413176957657,-1.8738382261772815,-2.6408380241241276,-2.0674056905488363
-1.3026796999575385,-1.8078756912236928,-2.661512081029616,-2.000046618202185
-1.3207584568697754,-1.739540280673738,-2.681512547211638,-1.9372090175290764
-1.3381538596765128,-1.669028255875841,-2.700884637386929,-1.8788019583359337
-1.3548441422352713,-1.5965230803903225,-2.719672656970288,-1.8247185890367514
-1.3708093730391746,-1.5221961965191984,-2.7379198428606557,-1.774837151188454
-1.3860313350043665,-1.4462078077275535,-2.75566821437254,-1.7290220302129344
-1.400493413081642,-1.368707644911465,-2.7729584346746696,-1.6871248207225351
-1.4141804895307566,-1.2898356976687586,-2.789829682881895,-1.6489853894501196
-1.4270788465074442,-1.2097228949392884,-2.8063195367763965,-1.6144329226503975
-1.439176075456837,-1.128491722514819,-2.8224638660029004,-1.583286947996478
-1.4504609926819851,-1.0462567679112396,-2.8382967354828654,-1.5553583234795025
-1.4609235603610975,-0.963125185902414,-2.8538503187176603,-1.530450187682306
-1.4705548122201217,-0.8791970806049183,-2.8691548205944835,-1.5083588671055097
-1.4793467830261708,-0.7945658023570041,-2.8842384092655386,-1.4888747370492985
-1.4872924410497408,-0.7093181597426028,-2.8991271566360317,-1.4717830329735897
-1.4943856226471668,-0.6235345489672678,-2.9138449869657674,-1.4568646093518822
-1.5006209681368394,-0.537289004397071,-2.9284136330592863,-1.443896642877372
-1.50599385818081,-0.45064917542585564,-2.94285259948806,-1.4326532765489741
-1.5105003499350687,-0.3636762359452074,-2.9571791322535494,-1.422906200730947
-1.5141371122945206,-0.2764247335610707,-2.971408194260859,-1.414425166809397
-1.5169013596301313,-0.1889423863390403,-2.9855524459289526,-1.4069784286230795
-1.5187907834935217,-0.10126983527727325,-2.9996222302151834,-1.4003331064795583
-1.5198034818462944,-0.013440360915119645,-3.013625561279979,-1.3942554683292825
-1.5199378854554457,0.07452042749558191,-3.027568115963272,-1.3885111226009588
-1.51919268118049,0.16259492197856962,-3.0414532271892813,-1.3828651173361812
-1.5175667319607042,0.2507738569909978,-3.055281878362643,-1.377081940627417
-1.5150589933907943,0.3390566541542033,-3.069052697768917,-1.3709254179828865
-1.5116684268492522,0.4274517634154347,-3.0827619519487457,-1.364158503131693
-1.5073939092150979,0.5159769939660719,-3.0964035369800627,-1.356542959956966
-1.502234139275437,0.6046598286652286,-3.109968966579632,-1.3478389347176083
-1.4961875409887848,0.6935377160333916,-3.123447355926808,-1.337804419507011
-1.4892521638284508,0.7826583340193715,-3.1368254001218783,-1.326194610022388
-1.481425580488257,0.872079819630676,-3.150087346222102,-1.3127611632135252
-1.4727047822919503,0.9618709580738172,-3.1632149578542372,-1.2972513632904323
-1.4630860727112123,1.052111324195669,-3.1761874714871414,-1.2794072079578778
-1.4525649594692556,1.1428913676673438,-3.18898154356672,-1.2589644306922607
-1.4411360457925821,1.2343124314265497,-3.201571187873643,-1.235651479483955
-1.4287929214783166,1.3264866903151122,-3.2139277026684825,-1.20918847785645
-1.4155280545751654,1.4195369935449464,-3.226019587447047,-1.1792862002780355
-1.4013326846397158,1.5135965905413509,-3.2378124494498275,-1.1456451014461584
-1.3861967187343023,1.6088087148120083,-3.249268900464289,-1.107954447488041
-1.3701086315861821,1.7053259947724766,-3.2603484449391695,-1.0658916069992612
-1.3530553716384575,1.803309653974086,-3.271007361009162,-1.0191215710989876
-1.3350222750987166,1.9029284560516369,-3.281198576720152,-0.9672967842914073
-1.3159929905382002,2.0043573421633063,-3.290871544563066,-0.9100573817224065
-1.295949417116567,2.1077757011017964,-3.29997211838029,-0.8470319430385091
-1.2748716601055492,2.213365205167363,-3.308442437810675,-0.777838887836181
-1.2527380080538755,2.321307139098114,-3.316220826689037,-0.7020886516004814
-1.2295249366628944,2.431779145923518,-3.323241713205042,-0.6193867925601415
-1.2052071452036592,2.544951313942476,-3.3294355811306433,-0.5293381869419065
-1.1797576320642345,2.6609815348729304,-3.3347289630000625,-0.431552469948466
-1.1531478167155051,2.7800100766465454,-3.3390444876995473,-0.32565086899402074
-1.1253477159490397,2.90215333763701,-3.3423009963894876,-0.21127455028720682
-1.0963261825726696,3.027496784671313,-3.34441374189236,-0.08809455534347588
-1.0660512147259564,3.156087127069951,-3.3452946874457945,0.04417666393357353
-1.034490343455257,3.287923844544457,-3.3448529208064586,0.18577219798793063
-1.0016111050098124,3.4229502680285444,-3.3429951988265794,0.3368563306045447
-0.967381602329527,3.561044507288549,-3.339626635520534,0.4975092506825435
-0.9317711572566415,3.7020106224030656,-3.3346515430137087,0.6677113620682682
-0.8947510510326109,3.8455705393385347,-3.3279744293930262,0.8473279151435333
-0.8562953456392255,3.991357300523189,-3.319501150241591,1.0360948643918921
-0.8163817726339936,4.1389103038700545,-3.309140201597672,1.2336070068208407
-0.774992669595293,4.28767320057598,-3.2968041315294636,1.4393095480300675
-0.7321159375895332,4.436995076357374,-3.282411036049163,1.6524942455159148
-0.6877459868259594,4.586135419922842,-3.2658860935940037,1.8723011658583233
-0.641884632626731,4.734273182018652,-3.2471630819354207,2.0977268473695356
-0.5945419008065445,4.880519955730707,-3.226185813461725,2.3276392830114556
-0.5457367012492373,5.023936985084222,-3.2029094206316104,2.5607996518906537
-0.49549733139839514,5.163555368541229,-3.177301424112704,2.795890176006115
-0.44386177771298285,5.298398509800987,-3.149342522352643,3.031546925287125
-0.39087779261497296,5.42750562508456,-3.1190270530997717,3.266395910662717
-0.33660273636412735,5.549954981430698,-3.0863630939931443,3.499090460434408
-0.28110318654982036,5.664885536689798,-3.0513721893888004,3.7283477204015902
-0.22445433118292238,5.771515780479935,-3.0140887121847846,3.9529821753294883
-0.16673917337812302,5.869158816649431,-2.97455889043149,4.171934347504395
-0.10804758521162872,5.957233044984105,-2.932839546956446,4.384293245805849
-0.04847525476178766,6.0352681470988285,-2.8889966144983874,4.589311653289273
0.011877426709200625,6.1029064130449155,-2.8431034979654948,4.786413882128675
0.07290649083964978,6.159899724140858,-2.795239359144208,4.9751961268345966
0.13450548808105836,6.206102710832056,-2.7454873978758623,5.1554199607403115
0.19656651518937893,6.241462724451444,-2.6939331982684593,5.326999818943743
0.25898114243389336,6.266007304727132,-2.6406632000790218,5.489985486842091
0.3216412154811647,6.279829806595805,-2.585763345210601,5.6445406784812535
0.38443951354712275,6.283073791103641,-2.5293179384257884,5.790918766332287
0.44727025145815913,6.275916707346501,-2.471408750762466,5.929436642496789
0.5100294185316241,6.258553314540589,-2.4121143843374977,6.060447579720872
0.57261495167703,6.231179230349846,-2.351509908540289,6.184313844702682
0.6349267439805285,6.193974953862955,-2.289666770093262,6.301379716672559
0.6968664935191581,6.147090705123537,-2.2266529729265363,6.411945496189279
0.7583374005703934,6.090632450108381,-2.1625335179646434,6.51624306227835
0.8192437250714772,6.024649539394055,-2.09737108734186,6.614413555264399
0.8794902204654178,5.949124475951053,-2.0312269517892156,6.7064878279205935
0.9389814652249283,5.863965434108418,-1.9641620735100096,6.792370413528746
0.9976211195660125,5.769002264244442,-1.8962383693747222,6.871827894181809
1.055311142208457,5.66398681624869,-1.827520090432904,6.9444826958393975
1.1119510103709438,5.548598471708972,-1.75807526347451,7.009813457648323
1.1674369950880334,5.422455754705987,-1.6879771288980268,7.067163179825057
1.2216615526350934,5.285134752629981,-1.6173054970997762,7.115756294422579
1.274512900161393,5.136194779176244,-1.5461479341555504,7.1547255680549275
1.3258748479531555,4.97521121750765,-1.4746006784750012,7.183149280287021
1.375626960128232,4.801814780183723,-1.402769185672131,7.200098390203398
1.4236451079300694,4.615735539604702,-1.330768201770097,7.204692410199139
1.4698024633261164,4.416849097164681,-1.2587212776681056,7.1961615138913695
1.5139709542977633,4.205221309897013,-1.1867596625291918,7.173911152004764
1.5560231673967335,3.981147270567975,-1.1150205510091442,7.137584346021425
1.5958346401024133,3.7451799530181105,-1.04364470754893,7.087116129561989
1.6332864396325943,3.498144271677913,-0.97277354625331,7.022774558714792
1.6682678823493735,3.24113335348567,-0.9025458006661621,6.9451834809323385
1.70067921588423,2.9754855275795316,-0.8330939658568387,6.855323852954563
1.7304340711600255,2.702742682867094,-0.7645407273272931,6.754512656241196
1.7574614979886964,2.42459286929167,-0.6969956007648811,6.644361021977504
1.781707426681613,2.1428019121386943,-0.630551990545106,6.526715592941226
1.803135445803,1.85914000820302,-0.5652848346156938,6.403588975291673
1.8217268458850302,1.5753095663358234,-0.501248944862777,6.277086058859586
1.8374799415483885,1.292879934687799,-0.43847808427418117,6.149332906918843
1.8504087408952665,1.013233308263575,-0.37698475520499275,6.022413952461094
1.8605410739779022,0.7375243461569034,-0.31676061568038183,5.89832167084013
1.8679163174394713,0.46665419509466716,-0.25777739897198054,5.778921085498553
1.872582859390418,0.2012580092357903,-0.199988188116995,5.665929740022621
1.8745954394827757,-0.058296136804989906,-0.1433288907167688,5.5609123813863555
1.8740124781147258,-0.31189975720099894,-0.08771976690290524,5.465288672515283
1.8708934805427158,-0.5596909685723007,-0.03306688017775241,5.380351803240717
1.8652965708569929,-0.8020390101106822,0.02073663785465476,5.307295833874385
1.857276180755886,-1.0395289692265173,0.07380959619339861,5.247249879806299
1.8468808910636207,-1.27294900277896,0.1262820949914616,5.201317713651937
1.834151401035831,-1.5032819185401465,0.17829527212798096,5.170621917986476
1.8191185818504296,-1.7317025910123967,0.23000149130784572,5.156352275240772
1.8018015559403056,-1.9595823359243623,0.28156501406025347,5.159818544260712
1.7822057325810619,-2.1885010075470417,0.3331631995028606,5.1825080332786255
1.7603207225055915,-2.4202670765202763,0.3849882798356469,5.226148245248743
1.7361180517403887,-2.656945009285082,0.4372497622881343,5.2927739692347755
1.7095486016475379,-2.900887337390055,0.49017750198048204,5.384795763258616
1.6805397282736374,-3.1547647548624895,0.5440254596130683,5.505061288097178
1.6489920807250125,-3.421579201620627,0.59907607249404,5.6568893424760995
1.6147762887088062,-3.7046278637397405,0.6556449659188011,5.844032690012211
1.5777300100714087,-4.007352184007652,0.7140852928189232,6.070478401498425
1.5376564882313322,-4.332940974190405,0.7747900768339074,6.339903236469003
1.494327078489428,-4.68343959567043,0.8381891091985975,6.654436850825776
