th1 (rad),w1 (rad/s),th2 (rad),w2 (rad/s),a1 (rad/s^2),a2 (rad/s^2)
3.4866950774086853,-1.2571749734920137,3.4265041595898906,2.487508025441215,3.401592866235824,-0.545848431674636
3.474123327673765,-1.2231590448296554,3.451379239844303,2.4820495411244687,3.2355436970751845,-0.2130991570296439
3.4618917372254687,-1.1908036078589035,3.4761997352555474,2.4799185495541725,3.0607478554252596,0.13757826738255027
3.4499837011468797,-1.160196129304651,3.500998920751089,2.481294332227998,2.8817644529545428,0.5001864789559313
3.438381739853833,-1.1313784847751056,3.5258118640733693,2.486296197017557,2.703194942710083,0.8687473781749632
3.427067955006082,-1.1043465353480049,3.550674826043545,2.4949836707993067,2.5295009389017484,1.2375536499869662
3.4160244896526017,-1.0790515259589875,3.575624662751538,2.507359207299176,2.364852266358746,1.6013771213382861
3.405233974393012,-1.0554030032954,3.60069825482453,2.523372978512559,2.213009943588826,1.9556276632815173
3.394679944360058,-1.0332729038595119,3.6259319846096556,2.542929255145374,2.077244969534205,2.296461720419404
3.384347215321463,-1.0125004541641698,3.6513612771611093,2.565893872349568,1.9602910208729543,2.6208434083411833
3.374222210779821,-0.9928975439554403,3.677020215884605,2.59210230643298,1.864327456558627,2.9265634913017102
3.364293235340267,-0.974254269389854,3.702941238948935,2.621367941345997,1.7909881651625117,3.2122227274260258
3.3545506926463684,-0.9563443877382289,3.729154918362395,2.653490168620257,1.7413915111038745,3.4771864237000343
3.344987248768986,-0.9389304726271902,3.7556898200485973,2.6882620328572573,1.7161866965807635,3.721516916732685
3.335597944042714,-0.9217686056613825,3.78257244037717,2.7254772020245843,1.7156120865532571,3.9458903264929734
3.3263802579861004,-0.90461248479585,3.8098272123974155,2.764936105289514,1.7395613522491586,4.151503448449539
3.317334133138142,-0.8872168712733584,3.8374765734503105,2.8064511397740093,1.7876536431269525,4.3399760995632155
3.3084619644254083,-0.8693403348420888,3.8655410848480507,2.8498509007696415,1.8593044008414576,4.513253613324715
3.2997685610769873,-0.8507472908336743,3.894039593855747,2.894983436902889,1.9537938928257095,4.673513475004808
3.2912610881686506,-0.8312093519054172,3.922989428224776,2.941718571652937,2.070331069916584,4.82307929966171
3.282948994649596,-0.8105060412062514,3.952406613941305,2.989949364649554,2.208110927761464,4.9643445040367045
3.2748439342375337,-0.7884249319286367,3.982306107587801,3.0395928096899207,2.366364145911987,5.099707151657293
3.2669596849182474,-0.7647612904695168,4.0127020356847,3.0905898812064936,2.5443983531426397,5.231516611718981
3.2593120720135524,-0.7393173069380904,4.043607934496764,3.1429050473236835,2.741630883966979,5.362031919258425
3.2519188989441714,-0.7119009980984206,4.0750369849700006,3.196525366516268,2.9576133180654565,5.493391098340875
3.244799888963187,-0.682324864917766,4.107002238635164,3.2514592774996767,3.1920484116912258,5.627590235812189
3.2379766403140096,-0.6504043808008537,4.139516831410161,3.3077351798577985,3.444800231577051,5.766470776140772
3.231472596506001,-0.6159563784850832,4.172594183208739,3.365399887619206,3.7158983927535543,5.911713336943398
3.22531303272115,-0.5787973945575476,4.206248182084931,3.42451702098864,4.0055372960663425,6.064836296913711
3.2195250587755746,-0.5387420215968842,4.240493352294817,3.485165383957777,4.314071178103798,6.227197453464308
3.2141376385596057,-0.49560130981584627,4.275345006134395,3.54743735849242,4.642005646271596,6.399997155345207
3.209181625461447,-0.4491812533531303,4.3108193797193195,3.6114373300458724,4.989986194222707,6.584281457092316
3.2046898129279158,-0.39928139141090324,4.346933753019778,3.6772801446167955,5.358783994219512,6.780943993568832
3.2006969990138066,-0.3456935514687081,4.383706554465946,3.745089584552484,5.749279056099612,6.990725416394612
3.1972400634991196,-0.288200760907712,4.421157450311471,3.81499683871643,6.162440636631176,7.214209358377418
3.1943580558900426,-0.22657635454140024,4.459307418698635,3.887138932300204,6.599304584577756,7.451813991804933
3.1920922923446287,-0.16058330869562268,4.4981788080216365,3.9616570722182534,7.060947120247379,7.703778321584372
3.1904864592576723,-0.08997383749314888,4.537795378743819,4.038694855434097,7.548454377461535,7.970142409339855
3.189586720882741,-0.014489293718533525,4.57818232729816,4.118396279527496,8.062886885074139,8.250720768475125
3.1894418279455556,0.06613957513220786,4.619366290093435,4.200903487212247,8.60523804055322,8.545068215599684
3.1901032236968776,0.15219195553774006,4.661375324965557,4.286354169368244,9.176385538965718,8.85243752730479
3.191625143252255,0.24395581092739727,4.70423886665924,4.374878544641292,9.777034680581735,9.171728354016292
3.194064701361529,0.34172615773321463,4.747987652105652,4.466595828181455,10.407652508349342,9.501427010091723
3.197481962938861,0.44580268281670804,4.792653610387467,4.561610098282372,11.068391848270997,9.839537021843991
3.2019399897670278,0.5564866012994181,4.838269711370291,4.660005468500812,11.75900457387233,10.18350070776839
3.207504855780022,0.6740766470381414,4.884869766055299,4.761840475578496,12.478743830025962,10.530112626526195
3.2142456222504037,0.798864085338401,4.932488170811085,4.867141601843758,13.22625557642997,10.875426497959012
3.2222342631037875,0.9311266411027007,4.981159586829522,4.975895866823349,13.999460694349546,11.214658216958364
3.2315455295148143,1.0711212480461962,5.030918545497755,5.088042448992932,14.795430085354168,11.542088864972143
3.242256741995276,1.219075548899738,5.081798969987685,5.203463337642654,15.610256707820447,11.850973182972233
3.2544474974842736,1.3751781159779424,5.133833603364112,5.321973069472376,16.43893034839706,12.13346076936525
3.2681992786440532,1.5395674194619131,5.187053334058835,5.443307677166029,17.27522306725921,12.380539216743419
3.2835949528386723,1.7123196501345053,5.241486410830496,5.567113069333463,18.111595573736967,12.58201033453407
3.3007181493400175,1.8934356058718749,5.297157541523831,5.692933172678804,18.93913707380909,12.7265122535417
3.3196525053987362,2.0828269766099656,5.354086873250618,5.820198295214221,19.747553057465822,12.801601193604588
3.3404807751648358,2.280302507184624,5.4122888562027605,5.948214307150266,20.525216610056916,12.793906508411643
3.363283800236682,2.485554673285193,5.471770999274263,6.076153372234383,21.259298572814487,12.68937073659219
3.388139346969534,2.6981476590133378,5.532532532996607,6.203047079600305,21.935989618076928,12.473582218551499
3.415120823559667,2.917507555194107,5.59456300379261,6.327782901785819,22.5408224596394,12.132200942779464
3.444295899111608,3.1429157797905014,5.657840832810468,6.449104911213614,23.0590946020875,11.65146852580451
3.4757250569095133,3.3735067258113762,5.722331881922604,6.5656195964716595,23.47638125998924,11.018780981219612
3.509460124167627,3.6082705384112685,5.78798807788732,6.675807406283855,23.779114976438855,10.223289274177956
3.54554282955174,3.846061688175657,5.854746151950159,6.778040299025635,23.955194439414225,9.256479472475503
3.5840034464334964,4.0856136325698,5.922526554940415,6.87060509375039,23.994572222124802,8.112674203438743
3.6248595827591945,4.325559354791047,5.991232605877919,6.951731835784777,23.889762434898937,6.789393108095551
3.668115176307105,4.5644569791400365,6.0607499242357665,7.019625766865732,23.63620746417478,5.287514836453311
3.7137597460985057,4.800819053781784,6.130946181904424,7.072500915230266,23.23245040575516,3.611198627011413
3.7617679366363235,5.0331435578393355,6.201671191056726,7.10861290150038,22.680077444035,1.7675496437794054
3.8120993722147167,5.2599443322796855,6.27275732007173,7.126288397938174,21.983421299621813,-0.23395330094049635
3.8646988155375137,5.479778545275904,6.344020204051112,7.123948864928769,21.149049835542435,-2.3822107771908163
3.9194966009902727,5.691269043631328,6.4152596927004,7.100126757156861,20.185098107351386,-4.665343732558789
3.976409291426586,5.893120024704842,6.486260960271968,7.053473319831273,19.100531910456137,-7.071502423809944
4.035340491673634,6.084125343809403,6.556795693470281,6.9827582955931735,17.90445102340543,-9.589510008902899
4.096181745111728,6.263169854043458,6.626623276426213,6.886863195504144,16.605547243502755,-12.209211442595446
4.158813443652163,6.429225326478485,6.695491908381254,6.76477108107819,15.211824481450442,-14.9214201375358
4.2231056969169485,6.581343571292989,6.763139619192036,6.615556879702832,13.730666135499472,-17.7173933574776
4.288919132629879,6.718650232647984,6.829295187989064,6.438382946128056,12.169300440934846,-20.587820353717422
4.356105634956358,6.840343237057332,6.893679017450345,6.232504742590882,10.535669505159039,-23.521372682874134
4.424509067326931,6.945699932108922,6.956004064876254,5.997291015762141,8.839654026453912,-26.502941925210735
4.493966066648021,7.034096472373461,7.015976975033875,5.732261596510034,7.094545034864593,-29.51177311481235
4.564307031371755,7.105041922722107,7.0732995909989755,5.43714386536191,5.318589642707729,-32.51978608583979
4.635357450598977,7.158227819149184,7.1276710296525945,5.111946004503512,3.5363767347919253,-35.49044859375393
4.706939728790468,7.193591586497104,7.178790489697629,4.7570415185659725,1.779783604545695,-38.3786028476508
4.7788756446554395,7.2113894225425605,7.226360904883289,4.3732554900894645,0.08819482967910751,-41.1316220648336
4.8509895388808655,7.2122713708393515,7.270093459784183,3.9619392694411286,-1.492247788903465,-43.69215678214205
4.923112252589259,7.197348892950317,7.309712852478595,3.525017701619708,-2.9104838036429515,-46.002506620557476
4.995085741518762,7.168244054913887,7.344963029494791,3.0649926354141335,-4.113385427676763,-48.010337943001915
5.066768182067901,7.127110200637119,7.375612955848933,2.5848892559841143,-5.04930498107206,-49.675121343622585
5.138039284074272,7.076617150826399,7.401461848408774,2.0881380425478886,-5.671774003897636,-50.97438549290717
5.208805455582536,7.019899410787422,7.422343228834253,1.5783941876188168,-5.942669313596134,-51.90878803100512
5.27900444969041,6.960472717651461,7.438127170710441,1.0593063073087654,-5.8341706594623695,-52.50516675724267
5.348609176866924,6.902131011056837,7.448720233783528,0.5342546397363387,-5.329010308424883,-52.817150614916414
5.417630486977493,6.848840907972588,7.454062780180892,0.006083133587174494,-4.418811152325219,-52.92347922087319
5.486118896057219,6.804652796449336,7.4541236115167635,-0.5231516586215574,-3.10063116486371,-52.92473846873085
5.554165424021712,6.7736464848006985,7.448892094930548,-1.052399043308866,-1.3720721266197573,-52.939609894598945
5.621901888869719,6.759925763534501,7.438368104497459,-1.5817951422548555,0.7746011833424589,-53.10186499200605
5.689501146505064,6.767671775367926,7.42255015307491,-2.112813792174916,3.3589540610101065,-53.55921666236382
5.757177864258743,6.801261315978027,7.401422015153162,-2.6484059587985542,6.419269516256631,-54.47482687102048
5.8251904774185235,6.865454011140593,7.374937955565176,-3.193154227508759,10.01972099539731,-56.031779665877764
5.893845017529929,6.965651221094566,7.343006413290089,-3.753472024167537,14.257509605702106,-58.43997356950379
5.963501529740875,7.108226317151587,7.305471693048414,-4.3378717598625745,19.26852257000663,-61.94294213524163
6.034583792912391,7.300911542851654,7.2620929754497885,-4.957301181214991,25.226540842679228,-66.81700303164664
6.107592908340908,7.553176951278446,7.2125199636376385,-5.625471211531457,32.32115465614184,-73.34131909119823
6.183124677853693,7.876388497839864,7.156265251522324,-6.35888440244344,40.673158786606436,-81.68061761387334
6.261888562832091,8.283120085705928,7.09267640749789,-7.175690578582174,50.079256876163804,-91.52871919752943
6.344719763689151,8.783912654467565,7.020919501712068,-8.090977770557467,59.32992744576402,-101.15389221867902
6.432558890233826,9.377211928925206,6.940009724006493,-9.102516692744258,64.65478789181813,-105.2220008842453
6.526331009523078,10.023759807843387,6.84898455707905,-10.15473670158671,57.40471221482193,-91.55545158133611
6.626568607601512,10.597806929991606,6.747437190063183,-11.070291217400072,25.604814245734094,-43.34814317315077
6.732546676901428,10.853855072448948,6.636734277889182,-11.50377264913158,-28.751883478992585,36.49699454944479
6.841085227625918,10.566336237659021,6.5216965513978655,-11.138802703637133,-73.20148698235745,102.239959857182
6.946748590002508,9.834321367835447,6.410308524361494,-10.116403105065313,-83.88375159484144,120.28690819319081
7.0450918036808625,8.995483851887032,6.309144493310841,-8.913534023133405,-73.7181364845307,108.70505659106828
7.1350466421997325,8.258302487041725,6.2200091530795065,-7.8264834572227215,-59.35131714542943,90.86280359213083
7.21762966707015,7.664789315587431,6.141744318507279,-6.917855421301413,-46.8261568162579,75.32150467530106
7.294277560226024,7.1965277474248515,6.072565764294265,-6.164640374548402,-36.99740524714673,63.369712901638295
7.366242837700272,6.826553694953384,6.010919360548781,-5.530943245532019,-29.420174271142162,54.44985868531663
7.434508374649806,6.532351952241963,5.955609928093462,-4.986444658678853,-23.52365706602369,47.80342908693485
7.499831894172226,6.297115381581726,5.905745481506673,-4.508410367809505,-18.853410464748357,42.81555891943382
7.5628030479880435,6.108581276934243,5.8606613778285785,-4.080254778615167,-15.083754112982684,39.03649313590594
7.623888860757386,5.957743735804415,5.819858830042427,-3.6898898472561075,-11.988300336863073,36.14274271877193
7.68346629811543,5.837860732435785,5.782959931569866,-3.328462420068388,-9.411257600347355,33.89814632163035
7.741844905439788,5.743748156432312,5.7496753073691815,-2.9894809568520846,-7.2463075926078115,32.12492296522169
7.799282387004111,5.671285080506234,5.71978049780066,-2.668231727199868,-5.422083917957062,30.68385134531869
7.855995237809173,5.617064241326664,5.693098180528661,-2.361393213746681,-3.892228538756153,29.46119045477475
7.91216588022244,5.578141955939102,5.6694842483911945,-2.0667813091989333,-2.6283466054438405,28.3604065517779
7.967947299781831,5.551858489884664,5.648816435299205,-1.7831772436811544,-1.6146727860843206,27.297408246524057
8.023465884680677,5.53571176202382,5.630984662862393,-1.5102031612159137,-0.8436686896808573,26.198445115703592
8.078823002300915,5.527275075127012,5.615882631250234,-1.2482187100588777,-0.31209049820155527,25.000061716833184
8.134095753052184,5.524154170144996,5.603400444149646,-0.998218092890546,-0.017331083335801335,23.650556931239514
8.189337294753635,5.523980859311638,5.59341826322074,-0.7617125235781508,0.045932308086831776,22.11233767963916
8.244577103346751,5.524440182392506,5.585801137984959,-0.5405891467817592,-0.11142465084781637,20.36445207083577
8.299821505170677,5.523325935884028,5.580395246517141,-0.3369446260734015,-0.4709610156826621,18.404527412621206
8.355054764529516,5.518616325727201,5.577025800256407,-0.1528993519471894,-1.0057847240632616,16.249402678523445
8.410240927786788,5.508558478486568,5.575496806736935,0.009594674838045048,-1.6809683441983663,13.933973248527943
8.465326512571654,5.491748795044585,5.575592753485315,0.14893440732332447,-2.4552262414478516,11.508133113074509
8.5202440005221,5.467196532630107,5.577082097558549,0.26401573845406956,-3.283575119787676,9.032115848768147
8.574915965848401,5.43436078143223,5.579722254943089,0.354336896941751,-4.120518806620964,6.570878470595993
8.629259573662724,5.3931555933660205,5.5832656239125065,0.42004568164771094,-4.923232033804524,4.188341763968406
8.683191129596384,5.3439232730279755,5.5874660807289835,0.461929099287395,-5.654279002693743,1.9422626552493394
8.736630362326665,5.287380483001038,5.592085371721858,0.4813517258398884,-6.283556156004094,-0.11969118873613194
8.789504167156675,5.224544921440997,5.596898888980257,0.48015481395252707,-6.789335290529254,-1.9623800116115548
8.841749616371086,5.156651568535705,5.601700437119782,0.46053101383641154,-7.158447347429717,-3.5641348241345745
8.893316132056443,5.085067095061408,5.606305747258147,0.4248896655950658,-7.385756867591223,-4.916400186110005
8.944166803007057,5.011209526385496,5.610554643914098,0.37572566373396576,-7.473127098580226,-6.022386542382854
8.994278898270913,4.9364782553996935,5.614311900551438,0.31550179831013725,-7.428079123973631,-6.895075681650594
9.04364368082491,4.862197464159957,5.617466918534539,0.2465510414936313,-7.262324076388832,-7.554901713417167
9.09226565546651,4.789574223396069,5.619932428949475,0.17100202435945963,-6.990311450418274,-8.02737844374822
9.14016139770047,4.719671108891886,5.62164244919307,0.09072823992197744,-6.627898486555533,-8.340880197084168
9.18735810878939,4.653392124026331,5.622549731592289,0.0073194379511357655,-6.191209959894689,-8.524717812446763
9.233892030029653,4.5914800244273835,5.6226229259718,-0.07792774017333187,-5.695725997125112,-8.60759077743264
9.279806830273927,4.534522764456132,5.621843648570067,-0.16400364794765826,-5.155608417348154,-8.616443899206446
9.325152057918489,4.482966680282651,5.620203612090591,-0.2501680869397227,-4.583254226567594,-8.575715009134182
9.369981724721315,4.437134138016975,5.617701931221194,-0.3359252370310645,-3.9890489674935528,-8.50693037956381
9.414353066101485,4.397243648342039,5.614342678850883,-0.4209945408267026,-3.3812829227854446,-8.428586941311195
9.458325502584906,4.363430819114185,5.610132733442616,-0.5052804102398146,-2.766189313895864,-8.356253820766918
9.501959810776047,4.335768925975226,5.605079929340218,-0.5888429484474837,-2.1480645979967865,-8.302827894748006
9.545317500035798,4.314288279995258,5.599191499855743,-0.6718712273949639,-1.5294353010749133,-8.278886194419888
9.58846038283575,4.298993926984509,5.5924727875817934,-0.7546600893391627,-0.9112420126331505,-8.293089329820704
9.631450322105595,4.289881506858178,5.584926186688402,-0.8375909826373698,-0.2930178751419094,-8.352602378992685
9.674349137174177,4.286951328106759,5.5765502768620285,-0.9211170064272967,0.32695485486108694,-8.463511293912712
9.717218650455244,4.290220876655369,5.567339106797755,-1.0057521193664238,0.9515214209048465,-8.631222910324231
9.760120859221798,4.2997360908644175,5.557281585604091,-1.0920643484696662,1.584571768359282,-8.860844771035852
9.803118220130443,4.315581808548011,5.546360942119395,-1.1806727961800247,2.23100328926039,-9.157547242147954
9.846274038215924,4.337891841440615,5.534554214157595,-1.2722482686015042,2.896732876833364,-9.526915107962974
9.88965295663033,4.366859170208949,5.52183173147158,-1.367517419681134,3.5887619545131333,-9.975299348490758
9.93332154833242,4.40274678975408,5.508156557274768,-1.4672704131660415,4.315298916271568,-10.510182482427885
9.977349016229962,4.445899778916796,5.493483853143108,-1.5723722379903202,5.08594481593702,-11.140572920160992
10.021808014019129,4.496759227076166,5.477760130763205,-1.6837779671919302,5.9119498425833665,-11.877445187121843
10.066775606289891,4.555878725502,5.460922351091285,-1.8025524190631486,6.806549564773091,-12.734243160844192
10.112334393544911,4.62394422114973,5.442896826900654,-1.9298948506715905,7.785390058086762,-13.727461267222148
10.158573835756409,4.701798121730598,5.423597878393938,-2.067169463343812,8.86704770154118,-14.877310882995618
10.205591816973715,4.79046859874601,5.4029261837605,-2.215942572173768,10.073638244385313,-16.208459662183177
10.253496502961175,4.891204981189863,5.380766758038762,-2.3780271687955996,11.431481715507717,-17.750787186738282
10.302408552773073,5.00551979834494,5.356986486350806,-2.555535040662982,12.971726537491081,-19.540004940161765
10.352463750756522,5.135237063719851,5.331431135944176,-2.7509350900646,14.730700533606436,-21.617788944499818
10.40381612139372,5.282544069055915,5.3039217850435305,-2.967112979509598,16.7494729593129,-24.03066244175274
10.45664156208428,5.450038798649044,5.2742506552484345,-3.2074196039271254,19.07152944997822,-26.826030577041536
10.51114195007077,5.640754093148826,5.242176459209163,-3.475679909697541,21.736287312318748,-30.04209572139626
