th1 (rad),w1 (rad/s),th2 (rad),w2 (rad/s)
5.382897376647181,2.7869469718088866,1.4369156096868325,0.11640705645998929
5.41076684636527,2.818216237729954,1.4380796802514324,-0.014983679681145681
5.438949008742569,2.8473898255718955,1.437929843454621,-0.15112457199342993
5.467422906998288,2.87481701451034,1.4364185977346868,-0.2917670951777906
5.496171077143392,2.900885822465462,1.4335009267829089,-0.43665472286948526
5.525179935368047,2.9260204210984626,1.429134379554214,-0.5855329019743876
5.5544401395790315,2.950678263894852,1.4232790505344701,-0.7381600266806163
5.58394692221798,2.9753471909631553,1.415897450267664,-0.89431916056616
5.613700394127612,3.0005428057728083,1.4069542586620023,-1.053830262897077
5.64370582218534,3.026806437725515,1.3964159560330316,-1.216562712613969
5.673973886562595,3.054704011328506,1.384250328906892,-1.3824479897166975
5.7045209266758805,3.084826140735888,1.370425849009725,-1.5514924656520848
5.735369188083239,3.1177897618647803,1.354910924353204,-1.7237903672170785
5.766547085701887,3.154241608263484,1.3376730206810332,-1.8995371069778249
5.7980895017845215,3.194863836428277,1.3186776496112549,-2.079043311701959
5.830038140148805,3.2403821152113443,1.2978872164942352,-2.262750023215978
5.862441961300918,3.291576513580733,1.2752597162620753,-2.451245686953533
5.895357726436726,3.3492955475240205,1.25074725939254,-2.6452856722786176
5.928850681911966,3.4144737673180163,1.2242944026697538,-2.845815166268098
5.962995419585146,3.4881532503703476,1.1958362510070728,-3.053996309208799
5.997876952088849,3.571509248937602,1.1652962879149849,-3.27124031286113
6.033592044578225,3.6658798987761116,1.1325838847863736,-3.4992448524450817
6.0702508435659865,3.7727990718820252,1.0975914362619228,-3.7400359098975886
6.107978834284807,3.8940296573816324,1.0601910771629468,-3.9960107911088123
6.146919130858623,4.031590805460197,1.0202309692518587,-4.269973902695146
6.187235038913225,4.187765070646599,0.9775312302249073,-4.565146424675492
6.229112689619691,4.365056287263962,0.9318797659781524,-4.885110171471488
6.2727632524923305,4.56603957472982,0.8830286642634375,-5.233605168537098
6.318423648239628,4.792989195368785,0.8306926125780665,-5.6140231056129455
6.366353540193316,5.047070561399055,0.7745523815219371,-6.0283001991165985
6.416824245807306,5.326726434328785,0.7142693795307711,-6.474694293312578
6.470091510150594,5.624718540480064,0.6495224365976453,-6.943692967682097
6.526338695555395,5.923384212090295,0.5800855069208244,-7.411431373417844
6.585572537676297,6.188929851488092,0.505971193186646,-7.831753162180581
6.647461836191178,6.369545391781225,0.42765366156484014,-8.133576006467662
6.71115729010899,6.407668626629662,0.3463179015001635,-8.237962516014003
6.7752339763752865,6.271653154189072,0.2639382763400235,-8.102176547543916
6.837950507917177,5.983599040021523,0.18291651086458433,-7.7582030194295175
6.897786498317392,5.606816396977116,0.10533448067028915,-7.294909057849473
6.953854662287163,5.205032147951699,0.03238539009179442,-6.801149949606054
7.00590498376668,4.8179414732756065,-0.035626109404266124,-6.332021945661224
7.054084398499436,4.462327644470731,-0.09894632886087837,-5.9107269444452815
7.098707674944143,4.141658841731659,-0.1580535983053312,-5.542056236739273
7.14012426336146,3.853542765644232,-0.21347416067272393,-5.222769141884244
7.178659691017902,3.5936612662988123,-0.2657018520915664,-4.947034099282784
7.21459630368089,3.3574855490905615,-0.3151721930843942,-4.708780856784535
7.248171159171796,3.1409089847964706,-0.36226000165223954,-4.502555314331635
7.2795802490197605,2.9404141263970556,-0.4072855547955559,-4.32373431180466
7.308984390283731,2.753058982576821,-0.4505228979136025,-4.168494391971717
7.3365149801094995,2.5764043244489265,-0.49220784183331967,-4.033701769004253
7.362279023353989,2.4084307884340577,-0.5325448595233622,-3.916789856129818
7.386363331238329,2.2474634302809813,-0.5717127580846604,-3.8156479935632546
7.40883796554114,2.092108656520029,-0.6098692380202929,-3.728527692289542
7.4297590521063395,1.9412035646489971,-0.6471545149431883,-3.6539661467978504
7.44917108775283,1.793776084543079,-0.6836941764111668,-3.5907246520025686
7.467108848598261,1.6490139742107361,-0.7196014229311924,-3.537739199264029
7.483598988340368,1.5062408585707858,-0.7549788149238328,-3.4940807983821816
7.498661396926076,1.3648977719583018,-0.7899196229076546,-3.4589235183094997
7.51231037464566,1.2245289424735055,-0.8245088580907496,-3.431518683081028
7.524555664070395,1.0847707951435759,-0.8588240449215598,-3.4111740423133043
7.535403372021831,0.9453433427229359,-0.8929357853446929,-3.397237045401423
7.54485680544906,0.806043282778308,-0.9269081557987071,-3.3890815897744186
7.552917238276843,0.6667382366461179,-0.9607989716964513,-3.386097795250872
7.559584620643304,0.5273616595416503,-0.9946599496489601,-3.3876844875231433
7.56485823723872,0.387908030228002,-1.0285367945241914,-3.3932441614593127
7.568737317541,0.2484280004375947,-1.0624692361387846,-3.4021802451589465
7.571221597545376,0.10902325420823392,-1.0964910385903741,-3.4138965035478512
7.572311830087458,-0.03015910086388851,-1.1306300036258525,-3.427798410577005
7.5720102390788195,-0.16893271302506405,-1.1649079877316226,-3.4432962871030943
7.570320911948569,-0.30707876030809067,-1.1993409506026536,-3.4598099535240423
7.567250124345488,-0.4443532633019308,-1.233939050137894,-3.4767745896221975
7.5628065917124685,-0.5804948045778667,-1.2687067960341158,-3.4936474372279878
7.55700164366669,-0.7152324546449251,-1.3036432704063958,-3.5099149331321984
7.549849319120241,-0.8482936507006805,-1.3387424197377178,-3.5250998286502577
7.541366382613234,-0.9794117406475213,-1.3739934180242204,-3.5387678454606326
7.531572265206759,-1.1083328949506688,-1.4093810964788267,-3.550533439399798
7.5204889362572525,-1.2348221048003758,-1.4448864308728246,-3.5600642960620426
7.508140715209248,-1.3586680258259283,-1.480487073833445,-3.5670842618356686
7.494554034950989,-1.4796864885485785,-1.5161579164518018,-3.571374515327224
7.479757170065503,-1.5977225736329659,-1.551871661605074,-3.5727728980695654
7.463779944329174,-1.7126512339299655,-1.5875993905857697,-3.571171439484726
7.446653431989874,-1.8243765278860988,-1.623311104980617,-3.566512218718609
7.428409666711013,-1.9328296023494216,-1.658976227167803,-3.558781796038741
7.4090813706875185,-2.037965621003257,-1.6945640451281905,-3.5480045124395128
7.388701714477486,-2.1397598738045316,-1.7300440902525855,-3.5342349946449247
7.367304115739441,-2.2382033216530086,-1.765386440199035,-3.517550213900135
7.344922082522911,-2.333297830210293,-1.8005619423380363,-3.498041433772597
7.321589104220807,-2.4250513303267716,-1.8355423566757623,-3.475806349708569
7.29733859091754,-2.513473114089811,-1.870300420172848,-3.4509416774880286
7.272203859776641,-2.5985694396803414,-1.9048098369477282,-3.423536395317851
7.246218165379838,-2.6803395794155946,-1.9390452009009067,-3.393665790795575
7.219414769585682,-2.7587724072915036,-1.9729818588088626,-3.36138641390728
7.191827045512767,-2.8338435878134387,-2.006595722947935,-3.3267319937363697
7.163488609634633,-2.905513398701134,-2.039863042885299,-3.289710341391115
7.134433475647621,-2.9737251970111687,-2.07276014629921,-3.2503012353000518
7.10469622367751,-3.038404521391141,-2.1052631586522104,-3.208455266987732
7.0743121784635985,-3.0994588120320756,-2.1373477113220876,-3.164093614555035
7.043317590343277,-3.1567777235051038,-2.168988647467638,-3.1171087057669946
7.011749813108226,-3.2102340029342513,-2.200159734525308,-3.0673657311399216
6.979647473078884,-3.2596849056802677,-2.230833391836707,-3.014704967960186
6.947050624022081,-3.3049741217304662,-2.260980441516309,-2.9589448771173976
6.9140008828047765,-3.345934187235265,-2.290569890287483,-2.8998859345403805
6.880541540932424,-3.382389356154064,-2.3195687496328867,-2.837315156656878
6.846717647370884,-3.4141589059589146,-2.3479419011994556,-2.771011273675531
6.812576058311294,-3.441060848127281,-2.375652013936211,-2.7007504948919645
6.778165449830022,-3.462916008223854,-2.4026595188851307,-2.6263127962148762
6.743536289747783,-3.4795524313892536,-2.4289226468472793,-2.5474886415770817
6.70874076543389,-3.490810056890729,-2.4543975332630503,-2.464086027094477
6.673832664864983,-3.4965455901695157,-2.4790383935339952,-2.3759377104499224
6.638867208963288,-3.496637482973895,-2.5027977706384945,-2.2829084591974027
6.603900834133549,-3.4909909124982494,-2.5256268552304686,-2.1849021222518386
6.568990925008567,-3.4795426301775865,-2.547475876452987,-2.081868301084164
6.534195498706791,-3.4622655315760613,-2.5682945594638285,-1.9738083739664394
6.4995728433910305,-3.439172782731959,-2.588032643203493,-1.8607806113319398
6.465181115563711,-3.4103213277708977,-2.6066404493168123,-1.7429041164667003
6.431077902286002,-3.3758146000954894,-2.6240694904814794,-1.620361336734484
6.397319756285047,-3.3358042673819703,-2.6402731038488243,-1.4933989191677526
6.363961713611227,-3.2904908608466257,-2.655207093040502,-1.3623267322213104
6.331056805002761,-3.240123172786432,-2.668830360362715,-1.2275149428131247
6.298655573274896,-3.184996352994222,-2.6811055097908465,-1.089389122401161
6.266805609744954,-3.1254486925197473,-2.6919994010148582,-0.9484234533722118
6.235551122819756,-3.061857149002477,-2.7014836355485805,-0.8051322108160769
6.2049325513297315,-2.994631736592827,-2.709534957656741,-0.6600597964263994
6.1749862339638035,-2.924208969433594,-2.716135555621005,-0.513769691495517
6.145744144269468,-2.851044604567757,-2.72127325253596,-0.3668327656787277
6.1172336982237905,-2.775605972219768,-2.7249415801927475,-0.21981541982520697
6.0894776385015925,-2.6983642042204314,-2.7271397343909993,-0.07326804981349194
6.062493996459388,-2.6197866724622108,-2.7278724148891342,0.0722857074086555
6.036296129734765,-2.54032992862615,-2.7271495578150478,0.216358542097042
6.010892830448504,-2.460433396367837,-2.7249859723940775,0.35850753461340124
5.986288496484826,-2.380514012085763,-2.7214008970479435,0.49834049462041585
5.962483356363968,-2.300961946087516,-2.716417492101739,0.6355204671864958
5.939473736903093,-2.2221374687078326,-2.7100622874298743,0.7697684030191813
5.917252362216014,-2.1443689616824337,-2.7023646033996824,0.9008640855785626
5.895808672599189,-2.0679520187769724,-2.693355962543897,1.0286454857509917
5.87512915241142,-1.9931495347566233,-2.683069507686387,1.1530067712327732
5.8551976570638535,-1.9201926500418829,-2.671539439974059,1.2738952316435468
5.835995730563435,-1.849282400039903,-2.6588004876576234,1.3913073928893624
5.817502906563036,-1.7805919120894766,-2.6448874137287297,1.5052845884262798
5.799696987442141,-1.7142689972373284,-2.629834567844467,1.6159082349039864
5.782554297469768,-1.650438996219583,-2.6136754854954267,1.7232950296522895
5.766049907507572,-1.5892077564932703,-2.596442535198904,1.827592251899229
5.75015782994264,-1.530664637565603,-2.5781666126799117,1.9289733122042807
5.734851183566984,-1.474885463185796,-2.558876879557869,2.027633658299243
5.720102328935126,-1.421935359633579,-2.5386005429748764,2.123787112449336
5.70588297533879,-1.371871438266793,-2.517362671850383,2.217662686869959
5.6921642609561225,-1.324745297010144,-2.4951860449816836,2.3095019002638435
5.678916807986021,-1.2806053292622341,-2.4720910259790454,2.399556600242743
5.666110754693399,-1.2394988397156461,-2.448095459976618,2.4880872829432694
5.6537157662962425,-1.2014739749478014,-2.4232145871471853,2.5753618919623897
5.641701026546764,-1.1665814825665892,-2.3974609682275614,2.6616550731050737
5.630035211721098,-1.1348763164292262,-2.3708444174965106,2.7472478585673676
5.618686448556805,-1.106419107208793,-2.343371938910837,2.832427753260086
5.607622257484717,-1.0812775174916094,-2.315047661378236,2.9174891961835576
5.596809482309801,-1.0595274986499705,-2.2858727694164003,3.0027343702287883
5.586214207323302,-1.0412544627631644,-2.2558454257141123,3.0884743335515603
5.57580166269567,-1.026554376414547,-2.2249606823785966,3.1750304436091232
5.565536118931525,-1.01553477348186,-2.1932103779425054,3.262736039609443
5.555380771196706,-1.008315669778195,-2.160583017546411,3.351938338519608
5.545297614498924,-1.0050303416093243,-2.127063634161215,3.443000481105205
5.5352473110828315,-1.0058259000013552,-2.092633629350163,3.5363036336529374
5.525189052082818,-1.0108635480775114,-2.0572705930136337,3.6322490020859948
5.515080416602043,-1.020318344272583,-2.0209481029927736,3.731259539306154
5.504877233159317,-1.0343781991768395,-1.983635507599712,3.833781010822637
5.494533451167549,-1.0532416948758292,-1.9452976974914857,3.940281909083391
5.484001034218791,-1.0771141127394048,-1.9058948784006517,4.05125144595213
5.473229893091396,-1.1062007606533761,-1.8653823639411304,4.167194466459774
5.462167885484862,-1.1406962654847783,-1.8237104192765328,4.288621561524354
5.450760922830015,-1.1807678919682778,-1.7808242036612891,4.416031842415712
5.4389532439103325,-1.2265301084427027,-1.736663885237132,4.5498846919021405
5.426687942825906,-1.2780064929410535,-1.6911650383181107,4.690555247711739
5.413907877896495,-1.3350736562864123,-1.6442594858409934,4.838266381317194
5.400557141333631,-1.3973802866412321,-1.5958768220278214,4.992987667279724
5.386583338467219,-1.4642331569052356,-1.5459469453550243,5.154289893871216
5.371941006898166,-1.534442132493894,-1.4944040464163122,5.321143571173311
5.356596585573227,-1.6061202678357074,-1.4411926107045792,5.491654880297143
5.34053538289487,-1.6764472470454699,-1.3862760619016077,5.662748391850133
5.323770910424415,-1.741430776256753,-1.3296485779831064,5.829841032818536
5.306356602661847,-1.7957461665673629,-1.271350167654921,5.9866133799430825
5.288399140996173,-1.832794321773979,-1.2114840338554902,6.125066020568839
5.270071197778433,-1.8451607183146335,-1.1502333736498018,6.236107148144188
5.251619590595287,-1.8256111463965892,-1.0878723021683598,6.310855049118175
5.233363479131321,-1.7685447224781332,-1.0247637516771781,6.342547496046698
5.21567803190654,-1.6714690571321795,-0.9613382767167111,6.328468604165058
5.198963341335219,-1.5358154116563405,-0.8980535906750605,6.270974104958473
5.183605187218656,-1.3666040901028158,-0.8353438496254758,6.176968078260394
5.169939146317628,-1.1710900205336765,-0.7735741688428719,6.0560318652244645
5.158228246112291,-0.9570663516015068,-0.7130138501906272,5.9181395573524735
5.148657582596276,-0.7315279783223578,-0.6538324546171025,5.771904631058766
5.141342302813053,-0.5000004232591736,-0.5961134083065148,5.623747641275192
5.136342298580461,-0.2664433680088152,-0.5398759318937629,5.477837601823636
5.133677864900372,-0.03347868431382095,-0.48509755587552655,5.336454646341244
5.133343078057234,0.19727501894185567,-0.4317330094121141,5.200476656136085
5.135315828246653,0.4248857563968977,-0.37972824285075324,5.06982572113569
5.139564685810622,0.6488570933965152,-0.32902998563939634,4.943815943691363
5.146053256744587,0.8689479165075639,-0.2795918262024827,4.821400665267507
5.154742735909663,1.0850514612164368,-0.2313778195498076,4.701338496757654
5.165593250521827,1.2971185500324318,-0.18436443458223106,4.582300824631358
5.178564436022151,1.5051118794660234,-0.13854142633591748,4.462939888348494
5.1936155548168115,1.7089814095861002,-0.09391202745243254,4.341931483750739
5.210705368912673,1.9086538663026222,-0.050492712614925155,4.218001892765679
5.229791907575699,2.104031628436241,-0.008312693687268363,4.089945270833503
5.250832223860061,2.2949978542881757,0.03258675902106667,3.9566353573668778
5.273782202402943,2.4814257522450007,0.07215311259473545,3.8170337776056034
5.298596459925393,2.6631905710779376,0.11032345037079148,3.6701961515384496
5.325228365636172,2.8401833027535597,0.147025411886176,3.515276544465481
5.353630198663708,3.0123253448491885,0.1821781773308308,3.351530364407507
5.3837534521122,3.179583524231317,0.21569348097490587,3.1783155554331257
5.415549287354513,3.3419849807814273,0.24747663652923713,2.995091803712566
5.448969137162328,3.499631476621343,0.2774275545663628,2.801417434886866
5.483965451928541,3.6527127478917945,0.30544172891523147,2.5969437203013768
5.520492579407459,3.801518558450077,0.3314111661182452,2.381406418162719
5.558507764991959,3.946449144510335,0.3552252302998724,2.1546145541150223
5.597972256437062,4.088023742761246,0.3767713758410226,1.9164367037967445
5.6388524938646745,4.2268868455396955,0.39593574287899,1.6667854009348246
5.681121362320072,4.363811680967378,0.41260359688833825,1.4056008035294854
5.724759479129745,4.4997001026869325,0.4266596049236331,1.1328354881895155
5.769756480156615,4.635577481276971,0.43798795980552824,0.8484433461577189
5.816112254969385,4.772580143123222,0.4464723932671054,0.5523772506468029
5.863838056400617,4.911931133734038,0.45199616577357343,0.24460281426532504
5.912957367737957,5.05489718971761,0.4544421939162267,-0.07486029564998525
5.963506339635133,5.202715225248283,0.45369359095972683,-0.4058516006610581
6.0155334918876155,5.35646969943705,0.4496350749531163,-0.7479101396396239
6.069098188881986,5.51689243868545,0.44215597355672004,-1.1000010278691992
6.12426711326884,5.68404451999949,0.431155963278028,-1.460071329162903
6.1811075584688355,5.856830126835609,0.416555249986399,-1.824366114280815
6.239675859737192,6.032298817091255,0.39831158884359086,-2.1864473073695563
6.299998847908104,6.204748473320761,0.3764471157698953,-2.535940750044751
6.362046332641312,6.364805588092188,0.3510877082694478,-2.8572746600064756
6.425694388522234,6.498990867192018,0.32251496166938304,-3.1291466110285393
6.4906842971941545,6.590700905388868,0.29122349555909766,-3.3260551905473488
6.556591306248043,6.623581311057173,0.25796294365362415,-3.42328383742809
6.622827119358615,6.587081752935968,0.22373010527934326,-3.4050146699895922
6.688697936887975,6.481540051402915,0.18967995857944733,-3.27174313745787
6.753513337402004,6.318920494523723,0.15696252720486864,-3.0414042354820237
6.816702542347241,6.118143801714068,0.1265484848500484,-2.7426391321266257
6.877883980364381,5.89841292153528,0.09912209352878215,-2.405058582646156
6.936868109579734,5.674679318173971,0.07507150770232059,-2.0524933285010243
6.993614902761474,5.456436724612211,0.05454657441731034,-1.7010253740604213
7.048179270007596,5.248603422817849,0.03753632067670613,-1.3600867908955752
7.100665304235775,5.052993860903472,0.023935452767750373,-1.0344843999239637
7.15119524284481,4.869591467314541,0.013590608768510737,-0.7261969730189602
7.199891157517955,4.697424352798455,0.006328639038321134,-0.43563372904146186
7.24686540104594,4.535099151755742,0.0019723017479065155,-0.16241452486965896
7.292216392563498,4.381101726450845,0.00034815649920992586,0.09418256618447146
7.336027409828007,4.233955494638299,0.0012899821610546404,0.3349805501690098
7.37836696477439,4.0922981733261805,0.004639787662744739,0.5607837416576259
7.419289946507652,3.9549138034583633,0.010247625079320997,0.7723257993228262
7.458839084542236,3.8207412206288542,0.017970883072549258,0.9702543632029407
7.497046496748524,3.6888706944280507,0.027673426704578667,1.1551344831707022
7.5339352036928044,3.5585350357434193,0.03922477153628569,1.3274608597701256
7.569520554050238,3.4290984447006667,0.052499380133986945,1.4876733958117743
7.603811538497245,3.3000447215418545,0.06737611409210469,1.6361730882861685
7.636811985712664,3.1709655860956016,0.08373784497496636,1.773336714644167
7.66852164157362,3.0415494035525508,0.10147121212140803,1.8995295689650555
7.698937135609146,2.911570400299839,0.12046650781105858,2.0151159557340517
7.728052839612144,2.7808783644583204,0.1406176673683991,2.120467405213011
7.7558616232567275,2.649388800573951,0.1618223414205292,2.215968719986441
7.782355511262467,2.5170735127966397,0.18398202862039362,2.3020220443523423
7.807526246390434,2.3839516072669684,0.20700224906391704,2.3790491927669297
7.831365762463103,2.2500809224261884,0.23079274099158634,2.4474924948445627
7.853866571687365,2.1155499106339133,0.255267665940032,2.5078144204343746
7.875022070793704,1.9804700037447325,0.2803458101443757,2.560496243660646
