th1 (rad),w1 (rad/s),th2 (rad),w2 (rad/s)
4.410620969662112,2.1560028753520393,3.079076119542784,-1.7970155233027507
4.432180998415633,2.2313791811204187,3.0611059643097565,-1.7758410595083352
4.454494790226837,2.3075419383489915,3.043347553714673,-1.7500298511560783
4.477570209610327,2.3847436932126986,3.025847255203112,-1.7193449331316513
4.501417646542454,2.463250374884815,3.0086538058717958,-1.6835213167741225
4.526050150291303,2.543341305331651,2.9918185927040546,-1.6422629506340234
4.551483563344619,2.6253092096503217,2.9753959631977143,-1.5952398506840555
4.5777366554411225,2.709460161067525,2.959443564690874,-1.5420854671869269
4.6048312570517975,2.7961133765224107,2.9440227100190044,-1.4823943798435106
4.632792390817022,2.885600758083059,2.929198766220569,-1.415720444558803
4.661648398397852,2.978266051961497,2.915041561774981,-1.3415755546593877
4.691431058917467,3.074463470537683,2.9016258062283873,-1.2594292268677065
4.722175693622844,3.174555593975867,2.88903151395971,-1.1687092774289711
4.753921249562603,3.2789103378130777,2.87734442118542,-1.0688039152139563
4.786710352940734,3.387896743422748,2.8666563820332804,-0.9590656436642168
4.820589320374961,3.5018793229880574,2.8570657255966383,-0.8388174272916451
4.855608113604842,3.6212106748231445,2.8486775513237217,-0.7073616334177747
4.891820220353074,3.746222085972405,2.841603934989544,-0.5639922946096445
4.929282441212798,3.87721186678238,2.8359640120434477,-0.4080112362010515
4.968054559880621,4.014431228585908,2.8318838996814373,-0.23874855622991933
5.0081988721664805,4.158067634219153,2.829496414119138,-0.055587808099385155
5.049779548508672,4.308225734949434,2.828940536038144,0.14200400634138546
5.092861805858167,4.4649062662759835,2.830360576101558,0.3544418967646772
5.137510868520927,4.627983610770157,2.8339049950692043,0.5819845739381935
5.1837907046286285,4.797183136648895,2.8397248408085862,0.8246937947436109
5.231762535995117,4.972059854166798,2.847971778756022,1.0823935380575587
5.281483134536785,5.151980341629459,2.8587957141365976,1.3546319607893977
5.333002937953079,5.336110197540731,2.8723420337444914,1.6406497609027426
5.386364039928487,5.52340937643722,2.8887485313535186,1.939358996604274
5.4415981336928585,5.712637564900476,2.9081421213195613,2.249336403427178
5.498724509341863,5.902371180129824,2.9306354853538332,2.5688346629950116
5.557748221143162,6.091032614783276,2.9563238319837835,2.895813833878951
5.618658547290995,6.276931082829588,2.985281970322573,3.2279933067279964
5.6814278581192905,6.458313009750282,3.017561903389853,3.5629223962954693
5.746010988216793,6.633418596609907,3.0531911273528074,3.8980653742247617
5.812345174182892,6.800540231649738,3.092171781095055,4.23089479488365
5.8803505764993895,6.9580780358746885,3.1344807290438914,4.5589857603691915
5.949931356858136,7.10458810708266,3.180070586647583,4.880103561147561
6.020977237928963,7.238819918594207,3.2288716222590588,5.192277954295682
6.093365437114905,7.359740647882466,3.2807944018020154,5.49385901662632
6.166962843593729,7.466545689089558,3.3357329919682788,5.783551682950792
6.241628300484624,7.558655970011923,3.3935685087977867,6.060428334301976
6.317214860184744,7.635703740473819,3.4541727921408065,6.323920766437745
6.3935718975894815,7.697509120586444,3.517411999805184,6.573794299106003
6.470546988795346,7.744049896533999,3.583149942796244,6.810107589195237
6.547987487760686,7.775426911729194,3.651251018688196,7.033161930927384
6.625741756877978,7.791827048039321,3.72158263799747,7.243443599794473
6.703660027358371,7.79348535585554,3.794017073995415,7.441562298372977
6.781594880916926,7.780647482914818,3.8684326969791445,7.62818816074296
6.8594013557460745,7.753533247503506,3.944714578586574,7.803989206062225
6.93693668822111,7.71230204684689,4.022754470647197,7.969570698500714
7.014059708689579,7.657020804292971,4.102450177632204,8.125417629753624
7.090629916732508,7.587635337964403,4.18370435392974,8.271841520680711
7.166506270112152,7.503946362596457,4.266422769136548,8.408932945579112
7.241545733738117,7.405591784060657,4.350512098592339,8.536521600280556
7.315601651578723,7.292037461104549,4.435877314595144,8.654146322460365
7.388522026189769,7.162579109792479,4.522418777819748,8.761038152126837
7.460147817287694,7.016358390802146,4.610029159341017,8.85612016435923
7.530311401195715,6.852396277907883,4.698590360984609,8.938028222866874
7.598835363974794,6.669646344688583,4.787970643213278,9.005156732890912
7.665531827421679,6.467069398399136,4.878022210542187,9.055732611382508
7.730202521405671,6.243728754904306,4.968579536656012,9.087918752979883
7.792639808954714,5.998902350577675,5.059458724185811,9.099945086968223
7.852628832460491,5.732204050785893,5.150458175055493,9.090260994624414
7.909950872968349,5.443702519224951,5.241360785001738,9.057697893457803
7.964387898160599,5.134022795829824,5.331937763936316,9.001626159641823
8.015728126118898,4.804414435812958,5.4219540255327345,8.922087562960954
8.063772270477028,4.4567717007575505,5.511174901162344,8.819884354438711
8.108339987484603,4.093596302839309,5.599373744706732,8.696609916399813
8.149275950512996,3.7179010786129103,5.68633984387073,8.5546133339079
8.186454961299125,3.333062184388023,5.771885977209809,8.396900077725292
8.219785583143006,2.9426357759626076,5.855854977987062,8.226980986673098
8.249211940902631,2.550160527950586,5.938124787853793,8.048689462358144
8.274713546182138,2.1589684478457953,6.018611682477374,7.865990432656777
8.296303230660596,1.7720232099297304,6.0972715868039415,7.682803639299791
8.314023462759893,1.3917988477079062,6.174099623196939,7.502858939383454
8.327941451236972,1.0202039604969615,6.249128212590774,7.329594279036907
8.338143490841942,0.6585494592771657,6.322424155381143,7.166099726983498
8.344728985434713,0.3075525890806596,6.3940851526509785,7.015104982535807
8.34780451132552,-0.03263296923077175,6.464236202476337,6.879003916008182
8.347478181633212,-0.3623718687601199,6.533026241636419,6.759908062891016
8.343854462945611,-0.6824968446262704,6.600625322265329,6.6597211782461025
8.337029494499347,-0.9942618003738803,6.66722253404779,6.580228337665465
8.327086876495608,-1.2993045326814485,6.733024817424444,6.523195002546548
8.314093831168794,-1.5996233809885125,6.798256767449909,6.490473389239659
8.29809759735891,-1.897570198730541,6.863161501342306,6.4841148895877465
8.279121895371604,-2.1958600140594724,6.9280026502381835,6.506487584833109
8.25716329523101,-2.4975948364074037,6.993067526086515,6.560396059314925
8.232187346866935,-2.806293682869658,7.058671486679664,6.649194698366999
8.204124410038238,-3.125909800123904,7.125163433663334,6.776871123992834
8.172865312036999,-3.4607926712412533,7.192932144903263,6.948044389031629
8.138257385324586,-3.815503699189095,7.262412588793579,7.167754904361586
8.100102348332696,-4.194296227166807,7.334090137837195,7.440785787901896
8.058159386061028,-4.599884852209657,7.408497995716214,7.769994578318293
8.012160537538932,-5.030826754398617,7.486197941499397,8.152707290612451
7.961852269994946,-5.476535370663916,7.5677250144055215,8.573791859260087
7.907086916288307,-5.909386071683754,7.6534629329981225,8.99461636051617
7.84799305557147,-6.276827449214751,7.743409096603284,9.341887845502269
7.7852247810793225,-6.50547264546711,7.8368279750583065,9.513011723995936
7.720170054624651,-6.534597745750263,7.931958092298266,9.422283085748134
7.654824077167149,-6.366382280809733,8.026180923155747,9.07036292085767
7.5911602543590515,-6.071738352938612,8.116884552364324,8.552174240048345
7.530442870829665,-5.7365103800555675,8.202406294764808,7.982574309577716
7.4730777670291095,-5.417052979406855,8.282232037860584,7.435597984950638
7.418907237235041,-5.137315090150488,8.356588017710092,6.941030890350139
7.367534086333537,-4.90254099935826,8.425998326613593,6.503475055170302
7.318508676339954,-4.710195141281289,8.491033077165296,6.117296336759809
7.271406724927141,-4.555447632011684,8.552206040532894,5.774008589438805
7.2258522486070245,-4.433392967572163,8.609946126427282,5.465184686229347
7.181518318931303,-4.339786402638759,8.664597973289576,5.183369637318954
7.138120454904915,-4.271191749473586,8.716431669662764,4.922219999524329
7.095408537410179,-4.224921401702369,8.765653869658008,4.676385354845225
7.053159323393156,-4.198917616489037,8.81241772320646,4.441331882708264
7.011170147228265,-4.191628200535764,8.856831042033543,4.213179822507306
6.969253865222908,-4.2018917678800385,8.898962840258616,3.988577550797583
6.9272349475441075,-4.228833273554548,8.938848615766592,3.764617705717532
6.884946614808562,-4.271765402641959,8.976494792823766,3.538795796394003
6.842228960782142,-4.330089991143286,9.011882750787706,3.3090111083247686
6.7989280608707094,-4.403193906435951,9.044972861870953,3.073610090680879
6.75489612180635,-4.490335158001426,9.075708962777762,2.8314721213610117
6.709992770226336,-4.590517535471005,9.104023683991372,2.5821354948488606
6.664087594871626,-4.702356108452974,9.12984503893986,2.3259567958164524
6.617064033787097,-4.823941702721893,9.153104606898026,2.06428896721031
6.568824616759878,-4.952719736765696,9.17374749657013,1.799652590098375
6.519297419392221,-5.085406383238856,9.191744022471113,1.535862832546796
6.468443355559833,-5.217970511135199,9.20710265079658,1.2780648398880525
6.416263650448481,-5.3457098669322605,9.21988329919546,1.0326284656360776
6.362806551779158,-5.463441197350311,9.230209583851822,0.8068648383094651
6.308172139805655,-5.565805363035189,9.238278232234917,0.6085551397769258
6.252514086175303,-5.6476628929719634,9.244363783632686,0.44532277090178307
6.196037457245583,-5.704530214664451,9.248817011341703,0.32392313260400385
6.138992155098939,-5.732991113185986,9.252056242667743,0.2495558006285189
6.081662243967079,-5.731018218247418,9.254551800674028,0.22530993554666845
6.024352061784605,-5.6981555301972175,9.256804900029495,0.2518324716762383
5.9673705064826335,-5.635539035712837,9.259323224746257,0.3272674136418184
5.911015116125505,-5.545759874780393,9.262595898882676,0.44746650119834014
5.855557517377701,-5.432596921107092,9.26707056389466,0.6064286056239221
5.80123154816663,-5.3006604871571525,9.273134849950898,0.7968946607964128
5.7482249432950585,-5.154996206118976,9.281103796558861,1.011009378753989
5.696674981233869,-5.000698491910355,9.291213890346402,1.240960746860486
5.646667996314766,-4.842576537627964,9.303623497815007,1.4795222688753942
5.598242230938486,-4.684903285249819,9.318418720503761,1.7204480173333867
5.551393198085988,-4.531261417707107,9.335623200677095,1.9587011746833416
5.506080583908917,-4.384483842702077,9.355210212423929,2.190525717058045
5.4622357454818955,-4.24667309890421,9.377115469594509,2.4133920323137623
5.419769014492854,-4.11927692047075,9.401249389917647,2.6258574887000075
5.378576245288146,-4.003196023985599,9.427507964804647,2.827382910702109
5.3385442850482905,-3.898903508940027,9.455781793911669,3.0181387848020114
5.29955524995889,-3.8065608758052223,9.485963181759688,3.1988247714502243
5.261489641200837,-3.7261215940240464,9.51795142947419,3.370515978067764
5.224228425260597,-3.657418144440334,9.551656589254867,3.534541331135474
5.187654243816193,-3.6002320127896192,9.587002002566221,3.6923938836537706
5.151651923688297,-3.5543482474973573,9.623925941402758,3.84566978360383
5.116108441213323,-3.519597203077078,9.662382639238796,3.9960313081843952
5.080912469182553,-3.4958863153668074,9.70234295232064,4.145189176739618
5.045953606028885,-3.4832244846621525,9.743794844088036,4.294899728001695
5.011121361182263,-3.4817410588883355,9.786743841368054,4.446973050835587
4.97630395059338,-3.491700570842914,9.83121357187641,4.603288451223627
4.94138694488495,-3.5135132178221697,9.877246456388646,4.765813395579868
4.906251812706729,-3.547739341736905,9.924904590344445,4.936620870418314
4.87077441928936,-3.5950834019902835,9.974270799048629,5.11789727138204
4.834823585269457,-3.656368294749006,10.02544977176245,5.311927339706772
4.798259902321967,-3.732472953082903,10.078569045159517,5.521032374912049
4.760935172791138,-3.8242027531365057,10.133779368908638,5.747419906769464
4.722693145259773,-3.9320403543169005,10.191253567976332,5.992872989324998
4.683372741716604,-4.055691685772269,10.251182297869581,6.258161590742156
4.642815824858881,-4.19330124682878,10.313763913777002,6.54200150880529
4.600882812390593,-4.34018880571877,10.379183928865055,6.839353406092516
4.557480924333405,-4.487044220271928,10.447577462925981,7.138967721002891
4.512610482130686,-4.617915286584679,10.51896714013601,7.420627440390386
4.466431329264839,-4.709311921007171,10.593173414539914,7.653905857243372
4.419338210054768,-4.733110444778994,10.669712473112348,7.802139868260795
4.372007105606978,-4.66564668050289,10.747733871794956,7.834904304910373
4.325350638801949,-4.500148004736788,10.82608291484406,7.745003414794568
4.280349158754581,-4.252359965299366,10.903532948992005,7.555942032418725
4.237825559101587,-3.952474480977525,10.979092369316193,7.310505862903635
4.198300814291812,-3.63065126389311,11.052197427945229,7.05076335138124
4.161994301652881,-3.3079970414312974,11.122705061459042,6.805876090920931
4.128914331238568,-2.9956221405266543,11.190763822368252,6.59110862599743
4.098958109833301,-2.6975432301977436,11.256674908628227,6.412034246861728
4.071982677531324,-2.4137855313063565,11.320795251096845,6.268892583535747
4.04784482221826,-2.1424877205078574,11.383484176932203,6.159497474362574
4.026419945013181,-1.8810758332307858,11.445079151675829,6.080829253780925
4.007609186680873,-1.626844010211611,11.505887444213638,6.02979959878873
3.9913407465787567,-1.3772123213473062,11.566185440201526,6.003569913203528
3.9775686233652836,-1.1298241670610776,11.62622113933356,5.999648992464159
3.966270381694673,-0.8825702398079515,11.686217629258202,6.015888992655305
3.9574446792965934,-0.6335828853163091,11.746376519184755,6.050438483829
3.9511088504434304,-0.3812220853136299,11.806880904023044,6.101680154592156
3.9472966295902943,-0.1240629181983553,11.867897705568966,6.168165321659072
3.9460560004083107,0.13911123470012515,11.929579358785556,6.248550093814921
3.947447112755312,0.4093082099319704,11.992064859723705,6.34153479344281
3.951540194854632,0.6873191769767728,12.055480207658134,6.4458070104357565
3.9584133866244,0.9737040217898612,12.119938277762492,6.55998844746001
3.9681504268422985,1.2687712699096343,12.185538162237092,6.682586017329808
3.9808381395413948,1.5725543839184386,12.25236402241039,6.811948217833153
3.9965636833805793,1.8847868632587144,12.320483504588722,6.946228482049314
4.015411552013166,2.204879182039104,12.389945789409216,7.083357855532663
4.0374603438335575,2.531901145109852,12.460779367964543,7.221029848910919
4.062779355284656,2.864573594437793,12.532989666453652,7.356700497673633
4.091425091229034,3.201273390361433,12.606556671430388,7.48760636197231
4.1234378251326484,3.540055053536889,12.68143273505011,7.610802272382406
4.158838375668017,3.878691253733851,12.757540757773935,7.723219002173523
4.197625288205355,4.214732445287786,12.83477294779567,7.821738788775855
4.239772612658233,4.545583512053619,12.912990335683428,7.903283988905662
4.285228447778769,4.868592624881364,12.992023175572484,7.964911579575261
4.333914374027582,5.181145125601681,13.071672291368237,8.003904292989905
4.385725825283599,5.480753697271385,13.151711334298136,8.017848482865094
4.440533362256312,5.765135843124062,13.231889819126787,8.004689773959592
4.498184720687553,6.032271013518793,13.311936716866382,7.962760217184951
4.558507430822742,6.280432474691123,13.391564319038231,7.890774713586877
4.621311755569653,6.508192734856217,13.4704720661741,7.787799175071851
4.686393682918215,6.714405327894344,13.548350057924818,7.653197373920081
4.753537736197159,6.898169261585742,13.624882031664018,7.4865668772257195
4.822519428813016,7.058784883894794,13.699747700436276,7.287676313733749
4.893107277651964,7.195711001130917,13.772624463573614,7.056416280274951
4.965064387663273,7.3085327718939705,13.843188626376364,6.792774571717645
5.038149715382213,7.396948371469744,13.91111637209354,6.496843393018772
5.11211919909691,7.460779916064562,13.976084806023728,6.168862093955336
5.186726998257556,7.500010876943301,14.037773426963282,5.809294016645192
5.261727107026989,7.514848382050447,14.095866367129734,5.418930503663242
5.336875590847493,7.505804601647875,14.150055672166365,4.99900933148439
5.411933636863972,7.473787195269015,14.200045765481208,4.551329445481918
5.486671508816662,7.420185172136666,14.245559059936028,4.078339915932542
5.560873360538029,7.346934381782092,14.286342459095353,3.5831798853592978
5.634342704355849,7.2565472264998085,14.322174257948946,3.0696493082053635
5.706908176620847,7.1520948517135245,14.352870751031,2.542098249281529
5.778429125137983,7.037137080695411,14.378291733523815,2.0052348581238904
5.8488004959449365,6.915604684266522,14.398344082105053,1.4638666353320975
5.917956542787602,6.7916481278741765,14.412982748458374,0.9226026435515328
5.985873024066343,6.669474159519964,14.422208774893889,0.385552026576206
6.052567765661543,6.553194427287801,14.426064295159652,-0.14394599443142952
6.1180997099344205,6.44670805698189,14.424624835215337,-0.6635337012071577
6.182566790504239,6.35363377348962,14.417989498203266,-1.1719748933045477
6.2461031282391355,6.277298932460432,14.406269749270221,-1.669225619548283
6.30887611756374,6.220785227199862,14.389577493074738,-2.1564510944865303
6.371083969835738,6.187025664816844,14.368012982129873,-2.636012779550021
6.432954226483907,6.178945295418691,14.341652854334372,-3.1114528231792877
6.494743679438094,6.199638518836296,14.310538326102579,-3.5875015935115098
6.556740064626457,6.25257682667749,14.274663310167464,-4.070128487433794
6.619265832893231,6.341839326388457,14.233962025293126,-4.566645228257248
6.682684226157116,6.472348004960467,14.188295573010553,-5.0858480708529425
6.747407706206721,6.650056428991769,14.137437092302024,-5.638132610374207
6.813908270496638,6.881951631404204,14.081055766198283,-6.2353869851952455
6.88272778681068,7.175507584729898,14.01870189634633,-6.890158973886971
6.954482862657978,7.536707160264853,13.949800306607461,-7.612864777834451
7.029849934260627,7.96463379407664,13.873671658829116,-8.40424930401188
7.109496272201393,8.438811591120249,13.789629165788996,-9.237758090252886
7.193884388112595,8.89524463477156,13.697251584886468,-10.026157500194415
7.28283683446031,9.200576067160808,13.596990009884523,-10.58560219882836
7.374842595131918,9.180603272415427,13.491133987896239,-10.675895811559075
7.466648627856072,8.767827339235174,13.384375029780648,-10.207094164696159
7.554326901248424,8.108435994240063,13.282304088133687,-9.388034290620366
7.635411261190825,7.410631631513267,13.188423745227484,-8.512801852295807
7.709517577505958,6.7842411783375205,13.103295726704525,-7.736910411001886
7.777359989289333,6.252522550900508,13.025926622594506,-7.09463936573353
7.839885214798338,5.805370219769655,12.95498022893717,-6.573599040407
7.897938916996035,5.425985631088138,12.8892442385331,-6.151984410339355
7.952198773306916,5.0990883743535,12.827724394429707,-5.810044312540519
8.003189657050452,4.812460490167526,12.769623951304302,-5.532259182863557
8.051314261952127,4.556658206770011,12.714301359475666,-5.306963354377996
8.096880844019827,4.3243931017527055,12.661231725931886,-5.125499392320695
8.140124775037354,4.1099764309672535,12.609976732008679,-4.981449492945453
8.181224539347026,3.9088969055314626,12.560162237079224,-4.870038932545417
8.22031350840234,3.7175195971669868,12.51146184775377,-4.787690922950397
8.25748870437401,3.5328799340940082,12.463584938524265,-4.7316919819465975
8.29281750371495,3.3525505261997877,12.4162680187048,-4.699930892026245
8.326343008976949,3.1745651206913927,12.369268709784537,-4.690682408866425
8.358088660183862,2.9973894501842566,12.322361885695873,-4.702414247113221
8.388062554685705,2.819932182302242,12.27533774322474,-4.733602145693253
8.416261876508727,2.6415903188709717,12.228001721767809,-4.782543916135431
