th1 (rad),w1 (rad/s),th2 (rad),w2 (rad/s),a1 (rad/s^2),a2 (rad/s^2)
2.851065586655403,0.873417571298586,4.457397129684894,1.8392337384622883,-0.9626517986212534,8.686542947345881
2.859799762368389,0.8637910533123735,4.475789467069517,1.926099167935747,-0.67445265981814,8.751134923261269
2.868437672901513,0.8570465267141921,4.495050458748874,2.0136105171683596,-0.3737077572905101,8.815220039169478
2.8770081381686547,0.853309449141287,4.515186563920558,2.1017627175600544,-0.060155733564628174,8.879526655319133
2.8855412326600676,0.8527078918056408,4.536204191096159,2.1905579841132456,0.26646396694374785,8.944757734059566
2.894068311578124,0.8553725314750783,4.558109770937292,2.2800055614538413,0.6064114921052145,9.01158030751392
2.902622036892875,0.8614366463961305,4.58090982655183,2.3701213645289805,0.959945851909489,9.08061406797778
2.9112364033568365,0.8710361049152254,4.60461104019712,2.4609275052087582,1.3273228679991038,9.152419021844054
2.9199467644059887,0.8843093335952165,4.629220315249207,2.552451695427199,1.7087915966421785,9.227482129758826
2.9287898577419407,0.9013972495616382,4.6547448322034795,2.6447265167247873,2.1045890103342395,9.306202839197567
2.937803830237557,0.9224431396649806,4.681192097370728,2.737788545116763,2.514932717289227,9.388877402428475
2.9470282616342067,0.9475924668378729,4.708569982821896,2.831677319141048,2.940011495978026,9.475681865012858
2.9565041863025856,0.9769925817976531,4.736886756013306,2.9264341377911762,3.3799734252499913,9.566653610125936
2.966274112120562,1.010792316050153,4.7661510973912184,3.0221006738924356,3.8349114016146357,9.661671355067561
2.9763820352810635,1.0491414300662993,4.796372104130143,3.118717387443111,4.304845856770825,9.760433521835889
2.9868734495817266,1.0921898886340076,4.827559278004574,3.21632172266147,4.7897045239301494,9.862434947464516
2.997795348468067,1.140086933873309,4.859722495231189,3.3149460721361153,5.289299155062087,9.966941966245539
3.0091962178068,1.19297992542393,4.89287195595255,3.4146154917985707,5.803299167698838,10.072965989460501
3.021126017061039,1.2510129171009183,4.927018110870536,3.5153451516931757,6.331202304656365,10.179235833243542
3.0336361462320482,1.314324940147482,4.962171562387468,3.617137510025611,6.872302528396036,10.284169205647691
3.046779395633523,1.3830479654314423,4.998342937487724,3.719979202082088,7.425655548859435,10.3858439627047
3.0606098752878377,1.4573045209200366,5.035542729508545,3.823837641709135,7.990042603440317,10.481969981098459
3.075182920497038,1.5372049469544398,5.073781105925636,3.9286573415201196,8.563933372129322,10.569862769704203
3.090554969966582,1.622844280675733,5.113067679340837,4.034355969217161,9.145449218049379,10.646420246791266
3.1067834127733396,1.714298772856227,5.153411239033009,4.140820171685074,9.732328286619373,10.708104431012957
3.123926400501902,1.8116220557224205,5.19481944074986,4.247901215995204,10.321894361293262,10.750930111270446
3.142042621059126,1.9148409993353532,5.237298452909812,4.3554105171079085,10.911031736908445,10.770462842368646
3.1611910310524793,2.0239513167044376,5.280852558080891,4.463115145531595,11.49616869892638,10.761828818597424
3.181430544219524,2.1389130036937014,5.325483709536207,4.570733433717569,12.073272442139604,10.719739253761798
3.2028196742564607,2.2596457281150975,5.371191043873383,4.677930826255187,12.637858368093,10.638531782579172
3.2254161315376115,2.3860243117960276,5.417970352135935,4.784316144080979,13.185016599846014,10.512231028926966
3.249276374655572,2.517874477794488,5.4658135135767445,4.889438454370248,13.709458175562226,10.334629798223666
3.274455119433517,2.65496905955011,5.514707898120447,4.992784752352485,14.205582664049887,10.099391295452978
3.301004810029018,2.797024886190609,5.5646357456439715,5.093778665307014,14.667567839459299,9.800171327036155
3.328975058890924,2.943700564585202,5.6155735322970415,5.191780378577376,15.089480546945474,9.43075763987678
3.358412064536776,3.0945953700546567,5.667491336082815,5.286087954976144,15.46540602617829,8.98522147328516
3.3893580182373224,3.2492494303164396,5.720352215632577,5.375940169708995,15.789590842761006,8.458074213958982
3.421850512540487,3.4071453387440496,5.774111617329667,5.460520911848585,16.05659239400837,7.844419995879927
3.4559219659279274,3.567711262684133,5.828716826448153,5.538965111807384,16.261425966466707,7.140093491713183
3.491599078554769,3.7303255223488003,5.884106477566227,5.610366046724516,16.399698848735284,6.341771359070877
3.528902333778257,3.894322510836153,5.940210138033472,5.673783760315224,16.467720389757353,5.447046189458489
3.5678455588866185,4.0589997147337264,5.996947975636624,5.728254222209809,16.46257745786951,4.454453650144352
3.608435556033956,4.223625489312422,6.054230517858723,5.772798758711253,16.382166728581822,3.3634469660524586
3.65067181092708,4.38744715659824,6.111958505445835,5.806433228371778,16.225178688350077,2.1743179215291284
3.6945462824930626,4.549698943481741,6.170022837729553,5.828176407587069,15.991033070698599,0.8880698983800756
3.74004327192788,4.709609274188727,6.228304601805424,5.83705710657087,15.679771310101158,-0.49374440181991175
3.7871393646697675,4.866406987289738,6.286675172871132,5.832119662552671,15.291917984417818,-1.9692006846945513
3.835803434542665,5.019326167133917,6.344996369496659,5.812427655705726,14.828329455328133,-3.5361699043959285
3.885996696214004,5.167609461687198,6.403120646053717,5.777065956661766,14.290053282248149,-5.192443044698648
3.937672790830876,5.31050999450968,6.4608913056203345,5.72514152621478,13.678225768408925,-6.935780297199483
3.9907778907759726,5.447292252193769,6.518142720882483,5.655783723242785,12.994036560836598,-8.763851957197911
4.04525081329791,5.577232617802135,6.574700558114911,5.568145203670806,12.23878802599777,-10.674043120865601
4.101023139475932,5.699620498062113,6.630382010151619,5.46140477246215,11.414072697882228,-12.66310352438785
4.1580193444565525,5.813761225040935,6.684996057876241,5.3347737372182715,10.522084039174706,-14.72663813751353
4.2161569567069614,5.918982065432682,6.738343795248423,5.187507355843136,9.56606372646581,-16.858453778333736
4.275346777361288,6.014642702697341,6.790218868806854,5.018922818059799,8.550872486396322,-19.049802039423536
4.3354932043882615,6.100151427561304,6.840408096987452,4.828424797665564,7.483651392114376,-21.28858838552892
4.396494718663875,6.174987941482447,6.888692344964108,4.6155389138102745,6.374517499889562,-23.558649161512953
4.458244598078699,6.238733116481343,6.934847734102211,4.379952422195145,5.237214087253404,-25.839228128541162
4.520631929243512,6.291105257353877,6.978647258324162,4.121560140909733,4.08961560563777,-28.104805246391685
4.583542981817051,6.3320014134102545,7.019862859733259,3.8405120884458164,2.953976648231493,-30.32543379062732
4.646862995951154,6.361541179892569,7.058267980617717,3.5372577505395433,1.8568197639574546,-32.46771792839592
4.71047840775008,6.380109377532143,7.093640558123112,3.212580571255584,0.8283852644333715,-34.49650432402719
4.774279501525402,6.388393230176477,7.125766363835668,2.867615528015312,-0.09837954498821459,-36.37726750157701
4.838163433827166,6.387409434726594,7.154442519115821,2.5038428529995422,-0.8892371372162865,-38.07904950080988
4.902037528174432,6.3785170633544315,7.179480947645817,2.1230523579914435,-1.5103393809272707,-39.57769223943198
4.965822698807976,6.363413669545158,7.200711471225731,1.7272754355971238,-1.9299458581462072,-40.85900802884504
5.029456835503428,6.3441142109636965,7.217984225581703,1.3186853553086735,-2.119905576790619,-41.92150325764349
5.092897977613065,6.3229151551957905,7.23117107913479,0.8994703227322386,-2.0566232983327124,-42.77832485008074
5.156127129165023,6.302348922212463,7.240165782362112,0.47168707423143114,-1.721281435974253,-43.45823928535819
5.219150618387148,6.285136107852721,7.244882653104426,0.037104681377849225,-1.0991802081913604,-44.00565437677112
5.282001979465675,6.2741443057708075,7.245253699918204,-0.40295186238986197,-0.17816661467762285,-44.47990997183433
5.344743422523383,6.272362639624031,7.241224181294306,-0.8477509621082053,1.0537850419811963,-44.954246411076525
5.4074670489196235,6.282900490043843,7.232746671673223,-1.2972934262189706,2.61172812628469,-45.51497254001892
5.470296053820062,6.30901777130669,7.219773737411034,-1.7524431516191599,4.517522903417012,-46.261383022594956
5.533386231533129,6.35419300034086,7.202249305894842,-2.2150569818451094,6.804169088115172,-47.30691725251389
5.596928161536537,6.422234691222012,7.180098736076391,-2.688126154370248,9.520654034845315,-48.78189725018097
5.661150508448757,6.517441231570465,7.153217474532688,-3.1759451268720578,12.737203055415101,-50.83784830364624
5.726324920764462,6.644813262124615,7.121458023263968,-3.68432360990852,16.55040067807633,-53.65261884726569
5.792773053385708,6.810317268905378,7.084614787164883,-4.2208497983811775,21.086325128089996,-57.433510432677615
5.860876226074762,7.021180520186278,7.042406289181071,-4.795184902707954,26.496171060761874,-62.410406814897776
5.931088031276625,7.286142230793897,6.994454440153992,-5.419288970856932,32.92920600974868,-68.7973726745903
6.003949453584564,7.6154342908913835,6.940261550445422,-6.107262697602835,40.443486402016816,-76.66699480852891
6.080103796493478,8.019869154911552,6.8791889234693935,-6.873932645688123,48.7565713138616,-85.60025230239893
6.160302488042593,8.507434868050169,6.8104495970125125,-7.729935168712113,56.62202181385431,-93.81162722003818
6.245376836723095,9.073655086188712,6.733150245325391,-8.668051440912494,60.51319407651873,-96.30376976165824
6.336113387584982,9.678787026953898,6.646469730916266,-9.631089138529077,52.914492559755736,-82.47823708181639
6.432901257854521,10.207931952551455,6.550158839530975,-10.455871509347242,24.209423590231005,-38.819033482284745
6.534980577380035,10.450026188453766,6.445600124437503,-10.844061844170088,-23.32431669221865,31.39416147845362
6.639480839264573,10.21678302153158,6.3371595059958015,-10.530120229385552,-63.3952535629652,91.0700414670112
6.741648669479889,9.582830485901928,6.231858303701946,-9.61941981471544,-75.4226358584464,111.14801922796548
6.837476974338908,8.828604127317464,6.135664105554792,-8.507939622435785,-68.165544082882,103.81771536067707
6.925763015612082,8.146948686488644,6.050584709330434,-7.469762468829014,-55.79776818828731,88.96911979271921
7.007232502476969,7.588971004605771,5.975887084642144,-6.580071270901822,-44.37237342800181,75.1707037745422
7.083122212523026,7.145247270325752,5.910086371933126,-5.8283642331564,-35.13225340822973,64.24953943859919
7.154574685226284,6.793924736243455,5.851802729601562,-5.185868838770408,-27.879585739479648,55.990317022159516
7.222513932588718,6.5151288788486585,5.799944041213857,-4.625965668548813,-22.170663049082464,49.80930005142436
7.287665221377205,6.2934222483578335,5.753684384528369,-4.127872668034569,-17.615397356093133,45.17870441263365
7.350599443860784,6.117268274796902,5.712405657848024,-3.6760856239082322,-13.921885577421035,41.69324802457903
7.411772126608753,5.978049419022692,5.675644801608941,-3.259153143662442,-10.882283283823659,39.053096490457314
7.47155262079898,5.869226586184455,5.643053270172317,-2.8686221787578687,-8.351257356109748,37.035433447912155
7.5302448866608245,5.785714012623358,5.614367048384738,-2.498267844278747,-6.228203036685858,35.47084038466879
7.588102026787058,5.723431982256499,5.58938436994195,-2.1435594404320595,-4.444269740133328,34.22638719817512
7.645336346609623,5.678989284855166,5.567948775537629,-1.8012955684503082,-2.953115065864414,33.19426809539614
7.702126239458175,5.6494581341965215,5.549935819853126,-1.4693528874963468,-1.7241867089721878,32.284560213960965
7.75862082080014,5.6322162671067995,5.535242290978163,-1.146507285356737,-0.7376239252710401,31.420983773029835
7.814942983471209,5.624840027854089,5.523777218124596,-0.8322974476264386,0.01981735950323084,30.538838415190508
7.87119138374975,5.625038201449121,5.515454243648331,-0.5269090634745335,0.5581542210159306,29.58447334236689
7.927441765764241,5.630619743659281,5.510185153013586,-0.23106433005086457,0.8870209700030268,28.515732378362692
7.983747963200834,5.639489953359312,5.507874509713077,0.05409299373276233,1.0179650580865347,27.302843560458598
8.040142862734427,5.649669603940177,5.508415439650405,0.32712142933734834,0.9661080132601864,25.92924596837179
8.096639558773829,5.6593306840727795,5.511686653943778,0.5864138890210663,0.7510649131148904,24.391906909871437
8.153232865614557,5.666841333203928,5.517550792833989,0.8303329581197807,0.39705857052401244,22.70080464393629
8.209901278946596,5.670811918909169,5.525854122415186,1.0573410045591436,-0.06774471027744111,20.877432831987985
8.266609398135687,5.670134471806394,5.5364275324607775,1.2661153328790236,-0.6125404865667596,18.952392377321864
8.323310742853751,5.664009066940726,5.549088685789568,1.4556392566522423,-1.2056000498488377,16.962326359508324
8.379950833523159,5.651953066442237,5.56364507835609,1.6252625202473254,-1.816109999863817,14.946577753309048
8.436470364187581,5.633791966443599,5.579897703558563,1.774728297780416,-2.415863448246027,12.943980685642062
8.492808283852018,5.609633331961139,5.597644986536367,1.9041681046368366,-2.980590473572036,10.990136541027258
8.54890461717163,5.5798274272254185,5.616686667582735,2.0140694700471093,-3.4908085208312696,9.115404410640988
8.604702891443884,5.5449193420171055,5.636827362283206,2.1052235141535194,-3.9321707415743448,7.343691690795453
8.660152084864055,5.505597634601362,5.657879597424741,2.178660431061474,-4.2953692090084115,5.692002415541788
8.715208061210069,5.462643942511279,5.679666201735356,2.235580455216892,-4.575698429387705,4.170611717571734
8.76983450063518,5.416886958217401,5.702022006287525,2.277286572392609,-4.772401585803642,2.7836916105821157
8.824003370217355,5.369162942359365,5.724794872011451,2.30512348849843,-4.887914219041754,1.5302099684938195
8.877694999640948,5.320283800168948,5.747846106896435,2.3204255881833684,-4.927097477475663,0.4049482920536866
8.930897837642638,5.271012825394191,5.7710503627782685,2.3244750711039055,-4.8965250023355065,-0.6004791588823265
8.98360796589658,5.222047575370836,5.794295113489308,2.318470279515082,-4.803860725643895,-1.4966830459391556
9.035828441650288,5.174008968114397,5.817479816284458,2.3035034490556905,-4.657343092510494,-2.2956770788792173
9.087568531331433,5.127435537189292,5.8405148507750155,2.2805466782668984,-4.465375728499451,-3.0101935680548477
9.138842886703326,5.082781779904298,5.863320317557685,2.25044474258635,-4.236214991229982,-3.6531351133171355
9.189670704502369,5.040419629991998,5.885824764983548,2.2139133914531786,-3.977740014255558,-4.237150202831238
9.24007490080229,5.000642229849443,5.90796389889808,2.171541889424866,-3.6972894061038883,-4.774315209707096
9.290081323100784,4.963669335788404,5.929679317792329,2.123798737327795,-3.4015494737115084,-5.275903918435247
9.339718016458669,4.929653841051288,5.950917305165606,2.0710396981434425,-3.096480732859494,-5.752226820116704
9.389014554869181,4.898689033722693,5.971627702147041,2.0135174299422753,-2.7872718719722425,-6.212524872263044
9.438001445206408,4.870816315002971,5.991762876446463,1.9513921812196449,-2.478312818178262,-6.6649054512357075
9.486709608356438,4.846033186821188,6.01127679825866,1.8847431267072878,-2.1731808663844028,-7.116311333217127
9.53516994022465,4.824301378157344,6.0301242295257325,1.8135800133751165,-1.8746358452825482,-7.572516421590196
9.583412954006223,4.805555019704518,6.048260029659484,1.7378548491592145,-1.5846219533970731,-8.038144424855552
9.631468504203267,4.789708800170548,6.065638578151076,1.657473404910659,-1.3042751864054312,-8.516708690530606
9.679365592204974,4.7766660483064936,6.0822133122001825,1.572306318005353,-1.0339361937087697,-9.010672874844765
9.727132252688039,4.766326686369406,6.097936375380236,1.4821995892569053,-0.7731689531953637,-9.521533062441982
9.774795519551732,4.758594996837452,6.112758371272805,1.3869842586324854,-0.520785846806949,-10.049922354299373
9.822381469520106,4.753387138369383,6.12662821385913,1.2864850350894916,-0.27487956940198394,-10.595738849587452
9.8699153409038,4.750638342675363,6.139493064210025,1.1805276465936172,-0.03286183291148279,-11.15829742246714
9.917421724330554,4.750309724346248,6.151298340675961,1.0689446723689457,0.20849192465087346,-11.736504838780002
9.964924821574016,4.7523946435927575,6.16198778739965,0.9515796239811457,0.45299359342463247,-12.329056711195408
10.012448768009943,4.756924579527004,6.171503583639462,0.8282890568691916,0.7049921058494634,-12.93465373300539
10.060018013805212,4.7639745005854985,6.179786474208154,0.6989425195391377,0.9693259006968277,-13.552233766217789
10.107657758811067,4.773667759592467,6.186775899403545,0.5634201818769597,1.2512833982253084,-14.181215905088761
10.155394436406992,4.78618059357472,6.192410101222315,0.4216080228260721,1.5565778252021578,-14.821752796688422
10.20325624234274,4.8017463718267415,6.196626181450576,0.27339049485918787,1.8913436736937213,-15.474988447316072
10.251273706061006,4.820659808563678,6.199360086399167,0.11864061038602716,2.2621629024042087,-16.14332059971785
10.299480304146643,4.84328143758772,6.200546492503028,-0.04279259561115134,2.6761297704960363,-16.830669597655366
10.34791311852252,4.870042735292681,6.200118566546917,-0.211099291587705,3.140964080046014,-17.542759480476626
10.396613545875447,4.9014523760931406,6.19800757363104,-0.38652688639247124,3.6651838157482453,-18.28742186454416
10.445628069636378,4.938104214250623,6.194142304767115,-0.5694011050379129,4.258349994537955,-19.074938969726652
10.495009111778884,4.980687714196002,6.1884482937167355,-0.7601504947351794,4.931399304716217,-19.91844896994778
10.544815988920844,5.030001707243165,6.180846788769384,-0.9593349844346571,5.6970841652598105,-20.83444475444901
10.595116005993276,5.086972548895763,6.171253438925037,-1.1676794319791473,6.570545447882341,-21.843406216198876
10.645985731482234,5.152678003374587,6.159576644605245,-1.386113494141136,7.570050319448962,-22.970616113991092
10.69751251151598,5.228378506569077,6.145715509663834,-1.6158196552810469,8.717935894120968,-24.247219334172076
10.749796296581671,5.315557865510287,6.1295573131110235,-1.8582918486227675,10.04180649864399,-25.711591783097887
10.802951875236774,5.415975930496726,6.110974394624796,-2.1154077664537465,11.57603254080349,-27.411079701551397
10.857111634541742,5.531736255904761,6.0898203169602585,-2.3895185634692604,13.363577843199774,-29.404132180387183
10.91242899710079,5.665372034336759,6.0659251313255655,-2.6835598852731324,15.458105598355244,-31.76273005503777
10.969082717444158,5.819953090320311,6.039089532472834,-3.00118718582351,17.926100563360052,-34.57469897615237
11.02728224834736,5.999214095953912,6.009077660614599,-3.3469341755850337,20.84821008065041,-37.944718853660596
11.087274389306899,6.207696196760416,5.9756083188587485,-3.7263813641216395,24.317717034826714,-41.99099619273017
11.149351351274502,6.4508733671086835,5.9383445052175325,-4.146291326048941,28.431025868990798,-46.83025874324474
11.213860084945589,6.735183625798592,5.896881591957043,-4.6145939134813885,33.25808035383144,-52.53388917742642
11.281211921203575,7.067764429336906,5.850735652822229,-5.139932805255652,38.76530394956962,-59.01641934358985
11.351889565496943,7.455417468832602,5.799336324769673,-5.73009699869155,44.633142998496425,-65.77474977903005
11.426443740185269,7.901748898817566,5.742035354782757,-6.387844496481851,49.86550031781825,-71.3338714307239
11.505461229173445,8.400403901995748,5.678156909817939,-7.10118321078909,52.09908981120716,-72.2715702558183
11.589465268193402,8.92139480010782,5.607145077710048,-7.823898913347273,46.93313590864945,-62.27957713984349
11.67867921619448,9.390726159194314,5.5289060885765755,-8.446694684745708,29.151490504509646,-33.9119430899625
11.772586477786422,9.68224106423941,5.444439141729118,-8.785814115645334,-0.9837096496438571,12.485591819663847
