th1 (rad),w1 (rad/s),th2 (rad),w2 (rad/s)
4.499655871633233,1.2963724253020157,2.581698907662556,-1.1024163192511003
4.512619595886253,1.3854384605584795,2.570674744470045,-1.108357654887478
4.526473980491838,1.4753166551139916,2.5595911679211705,-1.1108322665444883
4.541227147042978,1.5661800686556646,2.5484828452557258,-1.1095660331675474
4.556888947729535,1.6582162710100277,2.53738718492405,-1.104272218048967
4.573471110439635,1.7516272825663246,2.5263444627435603,-1.0946503048512675
4.590987383265298,1.846629269627343,2.5153979596950475,-1.080385118622644
4.609453675961571,1.9434519192439728,2.504594108508821,-1.061146363493291
4.628888195154011,2.0423373982545225,2.493982644873888,-1.036588741069864
4.6493115691365565,2.143538778463527,2.4836167574631896,-1.0063528513531697
4.6707469569211915,2.247317784531404,2.473553228949658,-0.9700671210857511
4.693220134766506,2.353941694080578,2.4638525577388,-0.9273510518379205
4.7167595517073115,2.4636791923605634,2.454579047220421,-0.8778201297766561
4.741396343630917,2.5767949591683736,2.445800845922655,-0.8210927872285755
4.767164293222601,2.693542747525422,2.437589918050369,-0.7567998469621036
4.794099720697855,2.8141567074176015,2.430021919580748,-0.6845969049246778
4.822241287772031,2.938840721076233,2.423175950531501,-0.6041801040735485
4.851629694982793,3.0677555579611866,2.4171341494907654,-0.515305705588093
4.8823072505624046,3.201003738278119,2.4119810924348846,-0.41781375578345004
4.9143172879451855,3.3386121242073608,2.40780295487705,-0.3116559575066685
4.947703409187259,3.480512446936484,2.4046863953019835,-0.1969275650231348
4.982508533656624,3.626520229129607,2.402717119651752,-0.07390271868723364
5.01877373594792,3.7763128718881096,2.40197809246488,0.05692788023228185
5.056536864666801,3.929408024673345,2.4025473712672025,0.1948186635224146
5.095830944913534,4.085143711517782,2.4044955579024268,0.3387326233758089
5.136682382028712,4.242661995030703,2.407882884136185,0.4873094613212057
5.179109001979019,4.400898155438913,2.412755978749397,0.6388419317719438
5.223117983533408,4.558577376212758,2.4191443980671163,0.7912640770453941
5.268703757295535,4.714220705578738,2.42705703883757,0.9421549001486627
5.315845964351323,4.866161583938945,2.4364785878390567,1.0887604250888558
5.364507580190712,5.012573523359932,2.4473661920899454,1.2280360549682452
5.414633315424312,5.1515086893092406,2.459646552639628,1.356709753199833
5.466148402317404,5.280946307211558,2.473213650171626,1.4713650284421458
5.5189578653895195,5.398849152276899,2.4879273004560476,1.5685412333127402
5.572946356912288,5.503226001502937,2.503612712789175,1.6448475058094392
5.627978616927318,5.592197870217521,2.5200611878472694,1.6970859125180011
5.683900595629493,5.66406604862341,2.5370320469724494,1.7223789699052297
5.740541256115727,5.7173802174114705,2.554255836671502,1.7182965499615201
5.797715058289842,5.751005017407801,2.571438802171117,1.6829769520744522
5.8552251084639195,5.7641831583379926,2.5882685716918616,1.6152363947231396
5.9128669400473,5.756592370825934,2.604420935639093,1.5146602506452607
5.970432863755559,5.728392321279071,2.6195675381455454,1.381668186596078
6.02771678696835,5.680256340460088,2.6333842200115063,1.2175444557298503
6.08451935037295,5.613381982862755,2.645559664568805,1.0244246544795024
6.140653170201578,5.529474635127108,2.6558039111136,0.805232064770824
6.195947916552849,5.43070010295577,2.663856231761308,0.5635607468573784
6.2502549175824065,5.31960543914751,2.669491839229882,0.30350870212904113
6.303450971973882,5.1990118027056536,2.672526926251172,0.02947174708653172
6.355441090000938,5.071887895756541,2.6728216437220373,-0.2540844263620576
6.406159968958503,4.941216255411359,2.670280799458417,-0.5428520880284436
6.455572131512617,4.809866269404572,2.6648522785781323,-0.8328866993081746
6.503670794206663,4.680486709736553,2.6565234115850505,-1.1207706926178038
6.550475661304028,4.555427120527732,2.6453157046588722,-1.4037239885015453
6.596029932509305,4.436692534313499,2.6312784647738567,-1.6796580030468842
6.64039685785244,4.325931007357119,2.614481884743388,-1.9471779026979734
6.683656167926011,4.224449476846147,2.5950101057164083,-2.20554368200155
6.725900662694472,4.13325108103839,2.5729546688963927,-2.4546035391406624
6.767233173504856,4.053086417248086,2.548408633504986,-2.6947131726036164
6.8077640376773365,3.9845118914091975,2.52146150177895,-2.926652787463377
6.847609156591428,3.927949797431021,2.4921949739043163,-3.151550746964864
6.886888654565738,3.883746532119984,2.4606794664346676,-3.3708197774932467
6.925726119886939,3.852227014420208,2.4269712686597353,-3.5861089905360246
6.964248390031141,3.8337447105810583,2.391110178754375,-3.799272975429755
7.002585837136952,3.8287275712825184,2.3531174490000777,-4.012357844025455
7.040873112849777,3.8377206267216804,2.312993870559823,-4.227603199018409
7.079250319116994,3.8614259106699413,2.270717838569639,-4.447458241888492
7.117864578223694,3.900739639172733,2.226243256150754,-4.674609165085791
7.156871974615421,3.9567847660365016,2.1794971644998964,-4.912012835745945
7.196439822275786,4.030933339749709,2.130377036142437,-5.1629272635830725
7.236749155673283,4.124805819151172,2.0787477635066063,-5.430920034058413
7.277997213864794,4.240220447200224,2.024438563166022,-5.719817252738397
7.320399418336796,4.3790390134045944,1.9672403906386382,-6.033519309466219
7.364189808470842,4.542805815080606,1.906905197543976,-6.375541844009399
7.409617866621648,4.731990378541509,1.843149779103882,-6.748020870978998
7.456937770407063,4.944513672155634,1.7756695703940921,-7.149738267240131
7.50638290712862,5.173107810603393,1.7041721877216909,-7.572539448427506
7.5581139852346535,5.401180030852446,1.6284467932374158,-7.995673444261567
7.612125785543178,5.59797577467306,1.5484900587948,-8.37913282855365
7.668105543289909,5.717171736099291,1.4646987305092636,-8.661692776781852
7.725277260650902,5.707504499504666,1.378081802741445,-8.775554015319292
7.782352305645949,5.539745299441269,1.2903262625882521,-8.683486738243127
7.837749758640362,5.231067453762396,1.2034913952058208,-8.41206075735493
7.890060433177986,4.835981335089968,1.1193707876322716,-8.038429919480333
7.938420246528886,4.4116592892987985,1.0389864884374682,-7.642173768046495
7.982536839421874,3.9950906284624628,0.9625647507570032,-7.274206861342182
8.0224877457065,3.6025353202584114,0.8898226821435814,-6.956650623336904
8.058513098909083,3.2376051346013983,0.8202561759102124,-6.694343788606176
8.090889150255098,2.8980859677585245,0.7533127380241507,-6.4843527574679865
8.119870009932683,2.5797136642420466,0.6884692104494707,-6.321155043699854
8.145667146575104,2.2778857553344305,0.6252576600124722,-6.1989404470759
8.168446004128448,1.988324630687735,0.5632682555417132,-6.112464723209135
8.188329250435325,1.707275634107678,0.5021436083096219,-6.057268197037277
8.205402006776403,1.4315196989580359,0.4415709263392491,-6.029643705842358
8.219717203765983,1.158323568662655,0.3812744892808255,-6.026520302950145
8.231300439452609,0.8853785184919005,0.3210092862513241,-6.045329853992523
8.240154224637527,0.610746981926281,0.2605559877113989,-6.083880922149547
8.24626169445679,0.332823199674044,0.1997171784899034,-6.140246838561219
8.24958992645353,0.050308606931563304,0.1383147101042912,-6.212668268718845
8.250093012522845,-0.23779944430474886,0.07618802741710273,-6.2994686285593
8.247715018079797,-0.5322078768063023,0.013193341131509731,-6.398980668551258
8.242392939311733,-0.8333196791892409,-0.05079646555400284,-6.509483276029983
8.234059742519841,-1.1412203600778588,-0.11589129831430267,-6.629148545881697
8.222647538919063,-1.4556625555476284,-0.18218278377311964,-6.7560001958746225
8.208090913363586,-1.776052732413276,-0.24974278573186587,-6.887885295669756
8.190330386039454,-2.1014443017028444,-0.3186216386885634,-7.022461884502515
8.169315943022426,-2.4305415837647457,-0.3888462575335886,-7.157205202992728
8.145010527184779,-2.7617187552772853,-0.46041830956351587,-7.289434789677349
8.117393339632006,-3.0930569789423137,-0.5333126574602893,-7.416363465228175
8.086462769842583,-3.422401263070659,-0.607476292112571,-7.535167226007375
8.052238757211876,-3.747436257757589,-0.6828279643726448,-7.643072446155815
8.0147643946343,-4.065777401035774,-0.759258688834203,-7.737453910456371
7.974106620623942,-4.375071021793272,-0.8366332279387667,-7.815934630308487
7.93035591040601,-4.673094767419134,-0.9147925742418516,-7.8764767868005565
7.883624962731818,-4.957848635830511,-0.9935573421098571,-7.9174530687357345
7.834046476373513,-5.227627355049533,-1.0727318727972144,-7.93768941428627
7.781770202823018,-5.481066928715108,-1.1521087669400771,-7.93647357515102
7.726959533535867,-5.717161508233488,-1.2314735026915873,-7.913528408058314
7.669787918453532,-5.935250688429759,-1.3106087867721705,-7.868953467583484
7.6104354115692345,-6.13498104740976,-1.3892983214480052,-7.803142397026499
7.549085601095137,-6.316248563340958,-1.4673297454182703,-7.716686097826141
7.485923115461728,-6.4791300355154595,-1.5444966063965317,-7.61027242307442
7.421131815106573,-6.623811771906343,-1.620599330627276,-7.484592340466315
7.35489369738751,-6.750522843982372,-1.6954452540319391,-7.3402606093121525
7.287388468947686,-6.859478583359381,-1.7688478601250606,-7.177756599276487
7.218793683114092,-6.950838150910689,-1.8406254261178254,-6.9973884682208976
7.149285301604985,-7.024678295436607,-1.9105993108000343,-6.799281860508391
7.079038518650619,-7.080984031994425,-1.9785921294051183,-6.5833927241470445
7.008228678330675,-7.119655954978178,-2.044426056646589,-6.34954273437493
6.937032118780893,-7.140533188467876,-2.107921483990338,-6.097474994120757
6.865626786896215,-7.143430430230068,-2.168896233931546,-5.826926950810701
6.794192482593914,-7.128187011395018,-2.227165503439653,-5.537716630398041
6.722910612479963,-7.094725240175345,-2.2825426697436333,-5.229837215739166
6.65196336007821,-7.043114454476005,-2.334841041901025,-4.903553670896333
6.58153221553345,-6.9736361970759955,-2.3838765786099883,-4.559493665372122
6.51179585356269,-6.886844886571425,-2.4294715152637094,-4.19872377648863
6.442927404696976,-6.783617545545624,-2.4714587530285956,-3.822801284262184
6.375091229241519,-6.665185910474907,-2.5096867658712174,-3.433792333597188
6.30843937013677,-6.5331449397106764,-2.5440246892071894,-3.034249266708962
6.243107920739663,-6.389433593878417,-2.574367181874279,-2.6271437070169754
6.17921358480088,-6.236286769353578,-2.6006386189444486,-2.215757242955961
6.116850717107344,-6.076161053158186,-2.6227961913740083,-1.8035375274637202
6.056089106575762,-5.9116408371205065,-2.6408315666486457,-1.3939330635453184
5.996972698204557,-5.745334409003477,-2.654770897284099,-0.990223564206631
5.939519354114522,-5.579771155914357,-2.6646731329261653,-0.5953635571513038
5.883721642555379,-5.4173105732494236,-2.6706267684976783,-0.21185455819551696
5.829548536822885,-5.2600715024990015,-2.6727453140796333,0.15834378361673968
5.7769478217978945,-5.109886537695982,-2.671161876243466,0.5138594430090173
5.7258489564209345,-4.96828271376919,-2.666023281813376,0.8539127256147621
5.676166129283242,-4.83648625126955,-2.657484154557228,1.1782868178857955
5.627801266770547,-4.715446835924568,-2.64570128637837,1.4872739096629757
5.580646798411301,-4.60587584332642,-2.6308285472817405,1.7816073898680576
5.534588039978037,-4.508292941620472,-2.6130124733830598,2.062389731831012
5.489505110561833,-4.42307628988923,-2.59238857606475,2.3310237819454445
5.445274347662941,-4.350512718378958,-2.5690783382452955,2.589152870110285
5.401769220479151,-4.290845500425142,-2.5431868095441925,2.83861294115582
5.358860765474899,-4.244318369677823,-2.5148006801326344,3.0813980179061526
5.316417581778121,-4.2112151511880755,-2.4839866999535727,3.3196387987946125
5.27430543026624,-4.191894659227233,-2.4507903119656267,3.555592943854946
5.232386483673968,-4.1868202541053385,-2.4152343825270775,3.7916443366547727
5.190518281132915,-4.196582440542401,-2.37731793916053,4.030306872294857
5.148552456727491,-4.221910729894746,-2.3370148704375815,4.274225385775193
5.106333349428543,-4.26366691766258,-2.2942726165798297,4.5261610029029615
5.063696680251917,-4.322804582409627,-2.2490110065508,4.788938463561816
5.020468634427821,-4.40026669719611,-2.201121621915182,5.065315557530892
4.97646596745586,-4.496771288401101,-2.1504684663398734,5.357704807993778
4.931498254571848,-4.612400037168612,-2.096891418259936,5.66762917158438
4.885374254200162,-4.745856022041089,-2.040215126544092,5.994725731096166
4.837915693979751,-4.893211912977599,-1.9802678692331304,6.33504798396904
4.788983574849975,-5.046003973233998,-1.91691738939344,6.67846235409267
4.7385235351176345,-5.1888475472514335,-1.8501327658525133,7.005376353988594
4.68663505964512,-5.297721577420284,-1.7800790023126274,7.284383789812403
4.633657843870917,-5.341769965454813,-1.7072351644145034,7.4747743184549025
4.5802401442163685,-5.292124665694116,-1.6324874212299543,7.538758381218265
4.527318897559427,-5.136498163272459,-1.5570998374177716,7.461615098462985
4.475953915926702,-4.888564854926817,-1.4824836864331417,7.264457015357824
4.427068267377434,-4.581180421118256,-1.4098391162795634,6.994505785332012
4.381256463166252,-4.249316912464936,-1.3398940584262433,6.701295203820537
4.338763294041602,-3.9180320609463024,-1.2728811063880379,6.4201444168178154
4.2995829734321385,-3.6005641743251524,-1.2086796622198597,6.169780732914634
4.263577331688887,-3.301678149175676,-1.1469818548907134,5.957174242085598
4.23056055019713,-3.0214332340642787,-1.0874101124698574,5.782853245299007
4.200346217856487,-2.7577273766212604,-1.0295815800168673,5.64445649214471
4.172768944090275,-2.5076862203475714,-0.9731370150954202,5.538653645273328
4.147692081886799,-2.2683283184948477,-0.9177504786426869,5.46205227988566
4.125008798701851,-2.036845683814894,-0.8631299558438302,5.41156940380387
4.104640341863702,-1.810698312839354,-0.8090142618057915,5.384544875389041
4.086533358735308,-1.5876259807095896,-0.7551688130519011,5.37873961220855
4.070657098928212,-1.365627767804231,-0.7013814169298156,5.392287477990238
4.05700082125017,-1.1429329025764823,-0.6474585421499132,5.4236323012716445
4.045571492224405,-0.9179734319181436,-0.5932222191371967,5.471463381032678
4.036391757905224,-0.689363064963501,-0.5385075853268699,5.534654386152392
4.0294981272555885,-0.45588371264567795,-0.483161041465346,5.612206793786877
4.024939290129132,-0.21647998825721426,-0.4270389735274772,5.703197499359108
4.02277449024656,0.02973862913154751,-0.37000699853388613,5.806729799552324
4.023071876537875,0.28348856680820406,-0.3119397005383629,5.921887051454433
4.025906762205957,0.5452967167400382,-0.25272083002381857,6.047688695047025
4.031359729373357,0.8154799424262634,-0.1922439430733483,6.183048878879686
4.03951452879762,1.094121115840931,-0.13041345428455145,6.326738591377381
4.05045573995603,1.3810437987908557,-0.06714606837077765,6.4773529239667464
4.064266177943939,1.6757882955456065,-0.002372539131110185,6.633285810593322
4.081024060899395,1.9775924179942934,0.06396031897482304,6.792715200336334
4.100799985079338,2.2853807953605676,0.13188747097818637,6.953601984205413
4.123653793032944,2.5977667594182687,0.20142349082024052,7.113705940031399
4.149631460627127,2.913070552737219,0.27256055022055453,7.27062130256553
4.178762166154499,3.2293566704996692,0.34526676324620986,7.421833177344003
4.211055732859496,3.5444914648829915,0.4194850950196499,7.564793877686398
4.246500647508325,3.8562197728574805,0.4951330337965139,7.6970155360402295
4.2850628452369,4.162256532114312,0.5721031891569162,7.816172403789052
4.326685410558043,4.460386587788666,0.6502649131948067,7.920203680587862
4.371289276435929,4.748563758253192,0.7294669500006854,8.007406161167056
4.418774914018461,5.0249992989483445,0.8095410116123559,8.07650600959376
4.469024907007944,5.288230553919329,0.8903060717082936,8.126700819575827
4.521907212547138,5.537162832648451,0.9715730799040518,8.15766660294928
4.577278840873622,5.771081004068969,1.0531497459335446,8.169528833102088
4.634989650914312,5.989631253441158,1.1348450342645655,8.162801242289408
4.694885963448724,6.192777086264469,1.2164730466874596,8.13829980994924
4.756813734311368,6.380736305980278,1.297856044786952,8.097041625055871
4.820621097371171,6.553906971837519,1.3788264610375107,8.040138828456966
4.886160167089546,6.712790261342532,1.4592278493220805,7.96869684141277
4.953288069702971,6.857917017967788,1.5389148177362082,7.883724062603019
5.021867239882649,6.989783013097795,1.6177520583622385,7.786057769342045
5.091765070013627,7.1087960485184984,1.695612636055659,7.676308619893952
5.1628530304988125,7.215236325352034,1.7723757222545984,7.55482427786212
5.235005393752333,7.309230212237161,1.8479239650332195,7.421671423014235
5.308097695874705,7.390736724715026,1.922140679263362,7.276634766825774
5.382005063121855,7.459545641577324,1.9949070269316196,7.119231540405277
5.456600519537628,7.515286136259779,2.066099342335672,6.9487401029531
5.531753380900225,7.557444973534895,2.135586743365203,6.764241657591614
5.607327830635574,7.585393594600628,2.2032291599411193,6.5646743982646205
5.683181766581581,7.598423676817139,2.2688759039237656,6.3488996058659355
5.759166003349752,7.595790907399012,2.332364899982425,6.115779141949872
5.835123912423742,7.576766661643376,2.3935226914019236,5.864263351056209
5.910891579040176,7.540696945005411,2.4521653249124857,5.593487500889002
5.986298548490231,7.487067285156946,2.5081001999213757,5.302873533080888
6.0611692213418005,7.415571228781345,2.5611289352521847,4.992232117157117
6.135324933629614,7.326178766934125,2.611051256423756,4.661857972863815
6.208586721298955,7.219199550593033,2.657669836152394,4.312609491064019
6.280778716804885,7.095334463666547,2.700795931063034,3.945962351483061
6.351732061441551,6.955708408804037,2.740255554577865,3.564026731604933
6.421289145529591,6.8018774870446626,2.775895821893914,3.1695194194925644
6.489307920400037,6.635805470825286,2.8075910160888395,2.7656860214760375
6.55566597510829,6.459807657903135,2.8352478763035998,2.356174324421773
6.620264051687322,6.27646450326808,2.8588096195478174,1.9448668994183218
6.683028696720003,6.0885120615863135,2.8782582885420007,1.5356877877440613
6.743913817335866,5.898720156377513,2.8936151664194414,1.1324029078778997
6.802901018899641,5.709771296668661,2.9049391954982204,0.7384352830300042
6.859998731866328,5.524153086304383,2.9123235483285206,0.35671377020243017
6.915240262729371,5.344074282909888,2.915890686030545,-0.010431773901580454
6.96868100555847,5.171410479483541,2.915786368291529,-0.36132355759030393
7.020395110353306,5.007680693026205,2.912173132715626,-0.6949394218758111
7.070471917283568,4.854052024948439,2.905223738496868,-1.010875184131723
7.119012437533052,4.711366736460423,2.8951149866555506,-1.309277519080944
7.166126104897656,4.580184805311512,2.882022211464741,-1.5907600194356886
7.211927952950771,4.460835120442207,2.866114611270384,-1.8563138835464863
7.256536304155193,4.353469502401284,2.8475514724349194,-2.107222233795907
7.300070999179206,4.258115226822394,2.8264792500969604,-2.344984190009549
7.34265215144743,4.174723271722253,2.8030294081968647,-2.5712521124449568
7.384399384164652,4.1032108402091785,2.777316887072415,-2.7877832258864803
7.425431492566744,4.043497695196599,2.7494390548135503,-2.996405239121803
7.46586646951871,3.995536443665729,2.719475002422332,-3.1989945141385125
7.505821833955368,3.9593371326940687,2.687485057280947,-3.3974646489518796
7.545415205282309,3.934986375501387,2.6535104107914282,-3.59376279330239
7.5847650690373225,3.9226606796954355,2.6175727828584043,-3.789870347967269
7.623991675834277,3.92263258632233,2.579674079378732,-3.9878035657502178
7.6632180016975004,3.9352664003149522,2.5397960437212297,-4.189607502866324
7.70257066570065,3.9609972552575927,2.4978999686925665,-4.3973330597847085
7.742180638253226,4.000282282372875,2.4539266380947193,-4.61298043854387
7.782183461076954,4.05350468286399,2.4077968337092805,-4.838381713352616
