th1 (rad),w1 (rad/s),th2 (rad),w2 (rad/s),a1 (rad/s^2),a2 (rad/s^2)
3.175407019126481,0.7099965529543856,3.789301972253836,1.9018599200149342,-1.3888040887847195,6.757776461093986
3.182506984656025,0.6961085120665383,3.8083205714539856,1.969437684625874,-1.1973999739004269,6.7471342145735225
3.1894680697766904,0.6841345123275341,3.828014948300244,2.0369090267716095,-0.9977967690624906,6.7332115072980105
3.196309414899966,0.6741565446369092,3.84838403856796,2.1042411418445894,-0.7895138489157331,6.715819020949506
3.203050980346335,0.6662614061477519,3.869426449986406,2.1713993320540843,-0.5721148517431681,6.69481332873788
3.2097135944078126,0.6605402576303202,3.891140443306947,2.2383474653414632,-0.345213211902121,6.670100304950795
3.216318996984116,0.657088125511299,3.913523917960362,2.305048468390971,-0.1084761680865996,6.6416358030545
3.222889878239229,0.656003363830433,3.936574402644272,2.371464826421516,0.13837280002985872,6.609423493621503
3.2294499118775333,0.6573870918307316,3.960289050908487,2.437559061357731,0.3955530776543305,6.573509850685515
3.2360237827958405,0.6613426226072749,3.9846646415220643,2.5032941598645864,0.6632274542740131,6.5339763752860325
3.2426372090219133,0.6679748971500151,4.00969758312071,2.5686339236174467,0.9415039098185417,6.490929240954838
3.2493169579934134,0.6773899362482005,4.035383922356885,2.633543216026995,1.2304383904026936,6.444486630827009
3.2560908573558955,0.6896943201522274,4.061719354517154,2.697988082335265,1.530038258326855,6.394764103951978
3.262987800557418,0.704994702735496,4.088699235340507,2.7619357233747848,1.840266058979398,6.34185837485475
3.270037747584773,0.72339736332529,4.116318592574255,2.8253543071233325,2.161043223821048,6.285829913154799
3.277271721218026,0.7450077955635005,4.144572135645489,2.8882126062548803,2.492253324644085,6.226684769100191
3.284721799173661,0.7699303288099414,4.173454261708038,2.9504794539458823,2.8337445091748004,6.164356008474305
3.29242110246176,0.7982677739016893,4.202959056247496,3.0121230140306254,3.185330779911086,6.0986851006728955
3.300403780200777,0.8301210817008002,4.2330802863878025,3.0731098650373543,3.5467918240110614,6.029403552442537
3.3087049910177853,0.8655889999409109,4.263811385038176,3.1334039005617798,3.9178711587434716,5.956115023234985
3.317360881017194,0.9047677115283456,4.295145424043794,3.1929650507941294,4.298272421129131,5.878278102953233
3.326408558132478,0.9477504357396369,4.327075074551735,3.251747831823662,4.6876536989953985,5.795189885233239
3.335886062489874,0.9946269727295909,4.359592552869972,3.309699730675994,5.085619871500273,5.705970434663471
3.34583233221717,1.0454831714445936,4.3926895501767325,3.3667594350226286,5.491712998938289,5.6095482286915
3.356287163931616,1.1004003014339765,4.426357144526959,3.4228549173095435,5.905400873966729,5.50464665730737
3.3672911669459555,1.1594543101736439,4.460585693700054,3.4779013838826174,6.326063919848481,5.389771687508375
3.378885710047692,1.2227149493721288,4.49536470753888,3.531799100757701,6.752980697195133,5.263200845351075
3.3911128595414133,1.2902447563440802,4.530682698546458,3.584431109211212,7.185312360800101,5.122973735214201
3.4040153071048542,1.3620978799520813,4.56652700963857,3.635660846563354,7.622086494449161,4.9668844017583025
3.417636285904375,1.4383187448965729,4.602883618104204,3.685329690580937,8.062180845897265,4.792475941935296
3.432019473353341,1.5189405533555456,4.639736915010013,3.73325445000029,8.504307587799532,4.597037888132778
3.4472088788868964,1.603983629233541,4.677069459510015,3.7792248288816177,8.946998843684648,4.377607003787339
3.463248715179232,1.6934536176703874,4.714861707798831,3.8230008989194912,9.388594340214011,4.130972252838382
3.480183251355936,1.7873395610725276,4.753091716788026,3.864310621447875,9.827232175538207,3.8536848158931525
3.498056646966661,1.8856118828279096,4.791734823002504,3.9028474696068067,10.260843824200302,3.5420741187860436
3.5169127657949404,1.9882203210699125,4.830763297698573,3.9382682107946674,10.687154625257094,3.1922709011914545
3.5367949690056397,2.0950918673224836,4.870145979806519,3.970190919806582,11.103691113327464,2.8002383698626514
3.5577458876788643,2.206128778455758,4.909847889004586,3.9981933035052086,11.507796641094401,2.3618124367086564
3.5798071754634218,2.321206744866702,4.9498298220396375,4.021811427872295,11.896656793295916,1.8727519184259316
3.603019242912089,2.4401733127996614,4.99004793631836,4.040538947056555,12.26733609178413,1.3287993528977895
3.6274209760400855,2.5628466737175026,5.030453325788926,4.053826940585533,12.616827423390252,0.725752749166727
3.6530494427772604,2.689014947951405,5.070991595194782,4.0610844680772,12.942115472081422,0.05954811493771729
3.6799395922567744,2.8184361026722193,5.111602439875553,4.061679949226577,13.240255191143726,-0.6736480161319699
3.7081239532834966,2.9508386545836567,5.1522192393678194,4.0549434690652575,13.50846600061518,-1.477337614844255
3.737632339829333,3.0859233145898086,5.192768674058472,4.0401700929168145,13.74424193669912,-2.354584241430207
3.7684915729752313,3.2233657339567996,5.23317037498764,4.016624250502512,13.945477418641302,-3.3079037724003992
3.800725230314799,3.3628205081432125,5.2733366174926655,3.9835452127785085,14.110607650749122,-4.339157577025071
3.834353435396231,3.5039265846507037,5.3131720696204505,3.9401536370082577,14.238761972492076,-5.449454265585445
3.869392701242738,3.6463142043756243,5.352573605990533,3.885659094352403,14.329927753233639,-6.639067487261783
3.9058558432864943,3.7896134819079608,5.391430196934057,3.8192684194797852,14.3851217628467,-7.907378582361357
3.943751978105574,3.9334646995364277,5.429622881128855,3.7401946336561718,14.406565416501808,-9.252854104033576
3.9830866251009382,4.077530353701446,5.467024827465417,3.647666092615836,14.397859990860578,-10.673069215954955
4.0238619286379524,4.221508953610052,5.503501488391576,3.5409354004562865,14.364157955480104,-12.1647886311723
4.066077018174053,4.3651505331648535,5.538910842396139,3.4192875141445636,14.31232708391366,-13.724116966039482
4.1097285235057015,4.5082738040039905,5.573103717537585,3.2820463444841685,14.251105130507954,-15.346730029794559
4.154811261545741,4.65078485530907,5.605924180982426,3.128579044186223,14.191244689804178,-17.02819755590562
4.201319110098832,4.792697302207111,5.637209971424289,2.9582970686271666,14.145650455389024,-18.764406120487475
4.249246083120903,4.934153806761001,5.66679294211056,2.770653007422292,14.129514424263853,-20.552088391357447
4.2985876211885135,5.07544895100364,5.694499472184783,2.565132123508717,14.160458428095206,-22.389461230536376
4.34934211069855,5.217053535284592,5.7201507934198705,2.3412375112033534,14.25869716187087,-24.276970091112826
4.401512646051396,5.3596405069033,5.743563168531904,2.098467810292225,14.447237477310315,-26.218129514043337
4.455109051120429,5.504112881676404,5.7645478466348266,1.8362865151517918,14.752128867298953,-28.220436818506744
4.5101501799371935,5.651634170349394,5.782910711786345,1.5540821469667243,15.202771447913612,-30.296312798363186
4.566666521640688,5.8036618848285295,5.798451533256012,1.2511190189830925,15.832262913193155,-32.463977912009625
4.624703140488973,5.961984513960461,5.810962723445843,0.9264792398629962,16.67770833851028,-34.748081711164566
4.684322985628578,6.128761597345564,5.820227515844473,0.5789984227513505,17.780293547905192,-37.17972018787637
4.745610601602033,6.306564532824616,5.826017500071987,0.2072012208725868,19.184668868218154,-39.79510710450016
4.808676246930279,6.498411221506798,5.828089512280712,-0.1907498501724148,20.93667669807294,-42.63142810798987
4.873660359145347,6.7077779884875275,5.826182013778988,-0.6170641312523135,23.077434335192937,-45.716949241726326
4.9407381390302225,6.938552331839457,5.820011372466465,-1.0742336236695769,25.62979551903735,-49.04963548009742
5.010123662348617,7.194850287029831,5.809269036229769,-1.564729978470551,28.56952069204562,-52.55334167756054
5.082072165218915,7.480545493950287,5.793621736445063,-2.0902633952461565,31.767298459011794,-55.9920275048566
5.156877620158418,7.798218478540405,5.7727191024926015,-2.6501836702947226,34.87998907697024,-58.81188815394632
5.234859804943822,8.147018369310107,5.746217265789654,-3.238302551834186,37.1698098874006,-59.882897679723435
5.316329988636923,8.518716468184113,5.7138342402713125,-3.8371315286314203,37.27731474594767,-57.18037719843037
5.401517153318764,8.89148961564359,5.675462924984998,-4.408935300615724,33.16224958998949,-47.717760117148636
5.4904320494752,9.223112111543484,5.631373571978841,-4.88611290178721,22.80962224861697,-28.588143245803085
5.582663170590635,9.451208334029653,5.582512442960969,-5.171994334245241,6.2986211612255065,0.033218034683542945
5.6771752539309315,9.514194545641908,5.530792499618516,-5.171662153898406,-12.165996387664311,31.93636219085189
5.77231719938735,9.392534581765265,5.479075878079533,-4.852298531989887,-26.20210115877726,57.64217016612405
5.866242545205003,9.130513570177492,5.430552892759634,-4.275876830328647,-32.56526106750743,72.0860844904759
5.957547680906778,8.804860959502417,5.387794124456347,-3.555015985423888,-32.68873441730226,76.992669502559
6.045596290501802,8.477973615329395,5.352243964602108,-2.785089290398298,-29.62174763896522,76.58104994973137
6.130376026655096,8.181756138939743,5.324393071698125,-2.019278790900984,-25.61833105845823,74.0582798675529
6.212193588044493,7.925572828355161,5.304200283789116,-1.278695992225455,-21.815661853183116,71.07211641944312
6.291449316328045,7.70741620982333,5.291413323866861,-0.5679748280310238,-18.659399738113088,68.2718417817879
6.368523478426278,7.520822212442199,5.28573357558655,0.11474358978685517,-16.272072586058076,65.82247405065452
6.4437317005507,7.358101486581618,5.286881011484419,0.7729683302934004,-14.648497332510084,63.68768320020957
6.517312715416516,7.2116165132565175,5.294610694787353,1.409845162295496,-13.741304897491405,61.76087775002472
6.589428880549081,7.074203464281603,5.308709146410307,2.027453939795743,-13.493481927563037,59.92167822917875
6.660170915191896,6.939268645005972,5.328983685808264,2.6266707220875305,-13.848149162686331,58.059580614387784
6.729563601641956,6.800787153379109,5.35525039302914,3.2072665282314086,-14.749386289507258,56.08396051000373
6.797571473175748,6.6532932904840365,5.387323058311454,3.768106133331446,-16.140100675244323,53.9285136039789
6.864104406080588,6.491892283731593,5.425004119644768,4.307391269371235,-17.95952314471411,51.55330066099652
6.9290233289179035,6.3122970522844515,5.4680780323384806,4.8229242759812,-20.141453834919766,48.94546949858512
6.992146299440748,6.110882513935254,5.516307275098293,5.3123789709670515,-22.6137350961202,46.11889436645936
7.0532551245801,5.884745162974052,5.569431064807963,5.773567914631645,-25.299105596335405,43.1127085070606
7.112102576209841,5.631754107010698,5.627166743954279,6.204694999702251,-28.11738960805734,39.988699621704626
7.168420117279948,5.350580210930125,5.689213693951302,6.604581995919297,-30.98882295906569,36.82764693142317
7.221925919389249,5.040691981339468,5.755259513910495,6.972858465233529,-33.83819178921736,33.72482859577209
7.272332839202644,4.702310063447294,5.82498809856283,7.31010675119125,-36.59936528219279,30.785074630209223
7.319355939837116,4.336316410625367,5.898089166074743,7.617957497493342,-39.2197511576925,28.117850121917176
7.36271910394337,3.9441188990484415,5.974268741049676,7.899135998712514,-41.66420401969097,25.83289852291601
7.402160292933854,3.5274768588515317,6.053260101036801,8.157464983941674,-43.917971440294586,24.036930417365685
7.43743506152237,3.088297144448586,6.134834750876218,8.39783428811533,-45.98834819543345,22.831685984632788
7.468318032966856,2.628413662494251,6.218813093757371,8.626151147961657,-47.90476789696106,22.313397124182192
7.494602169591799,2.1493659835246404,6.305074605236987,8.84928511920348,-49.71698429825452,22.573156875849627
7.516095829427045,1.652196140542095,6.393567456429022,9.075016687961975,-51.490587246438835,23.696792198838043
7.532617790832466,1.1372902680777068,6.484317623308641,9.311984609950356,-53.29800410889641,25.76111314232568
7.543990693513243,0.6043102269887427,6.577437469408145,9.569595741373613,-55.20068076866996,28.819969504998575
7.550033795783131,0.052303419302043075,6.673133426821881,9.857795436423599,-57.213071854195306,32.866608083331144
7.550556829976151,-0.51982729923991,6.771711381186117,10.18646151725691,-59.229480508923686,37.74553883119092
7.545358556983752,-1.112122104329147,6.873575996358686,10.56391690556882,-60.87962466932094,42.96555557637144
7.53423733594046,-1.7209183510223562,6.979215165414375,10.993572461332535,-61.26731434120695,47.3475060011482
7.517028152430237,-2.3335914944344256,7.0891508900277,11.467047521344018,-58.593867154429,48.50047248782207
7.4936922374858925,-2.9195301659787156,7.20382136524114,11.95205224622224,-49.95114733371923,42.50285823173002
7.464496935826105,-3.4190416393159078,7.3233418877033625,12.377080828539539,-32.304737729787234,25.175708376864325
7.430306519432946,-3.74208901661378,7.447112695988758,12.628837912308182,-5.951123569971987,-3.2850176099711526
7.392885629266808,-3.8016002523135,7.57340107511184,12.595987736208471,22.037943620275936,-33.69131813179444
7.354869626743673,-3.581220816110741,7.699360952473925,12.259074554890526,41.951255480009415,-53.500875394334734
7.319057418582566,-3.161708261310647,7.82195169802283,11.724065800947178,50.466517273288254,-58.83119611886998
7.2874403359694595,-2.6570430885777645,7.939192356032302,11.135753839758479,51.0613100440733,-54.64170474251393
7.260869905083682,-2.1464299881370312,8.050549894429887,10.58933679233334,48.16094938777581,-46.79175672643252
7.239405605202312,-1.6648204942592733,8.15644326235322,10.121419225069015,44.373174781071995,-38.5418937862188
7.222757400259719,-1.2210887464485534,8.25765745460391,9.736000287206828,40.783923137714055,-31.119092325606296
7.210546512795234,-0.8132495150714127,8.355017457475979,9.424809363950764,37.72506689703834,-24.797981341235875
7.20241401764452,-0.43599884610102935,8.449265551115486,9.176829550538406,35.22951512862823,-19.508362097552016
7.19805402918351,-0.08370369481474704,8.54103384662087,8.981745929562885,33.231246210565445,-15.088701713627529
7.197216992235362,0.24860876729090742,8.630851305916499,8.83085891242661,31.642249194206894,-11.37623765582282
7.1997030799082715,0.5650312592329764,8.719159895040764,8.717096535868382,30.37890112894374,-8.233136007091977
7.2053533925006015,0.8688202705224137,8.806330860399449,8.634765175797462,29.36911763544332,-5.549997743477467
7.214041595205826,1.162511446876847,8.892678512157422,8.579265198362688,28.552727144437462,-3.2423716708002
7.225666709674594,1.4480387183212216,8.97847116414105,8.546841481654685,27.879810135791423,-1.245842229126277
7.2401470968578066,1.7268368196791357,9.063939578957596,8.534383059363423,27.308726395802232,0.4885184784466172
7.257415465054598,1.9999240836371581,9.14928340955123,8.53926824414789,26.804396982784162,1.9979009043068245
7.27741470589097,2.2679680534649997,9.234676091992709,8.559247253190957,26.33697655761628,3.3107263074955666
7.30009438642562,2.5313378190411626,9.320268564524618,8.592354516265912,25.880899807519853,4.448967938880873
7.325407764616032,2.7901468171163613,9.406192109687277,8.63684419565472,25.41423864009201,5.429965376632793
7.353309232787196,3.0442892035172813,9.492560551643825,8.69114384942105,24.91829702788983,6.267843737514134
7.383752124822369,3.2934721737961796,9.579471990138035,8.75382228679619,24.377372261719383,6.974615835260371
7.416686846560331,3.5372458964133733,9.667010213005998,8.823568445148794,23.77861605304867,7.5610161626138925
7.452059305524465,3.77503205694386,9.755245897457486,8.899178606774933,23.111934177946296,8.037093673675379
7.489809626093903,4.006151398723323,9.844237683525236,8.979549543511688,22.3698694648109,8.412576279817738
7.529871140081136,4.229850093371432,9.934033178960354,9.063675306309865,21.547420929489633,8.697013488923197
7.572169641014851,4.445324302666329,10.024669932023452,9.150645441199096,20.641762683325926,8.899704017977449
7.616622884041514,4.651741929499588,10.116176386435443,9.239642481378871,19.65184026524527,9.02942134981273
7.66314030333651,4.848260332152041,10.208572811249232,9.329936694876999,18.577838920840325,9.093960467693499
7.711622906658031,5.034038721360444,10.301872178198002,9.420876299553933,17.42053699447932,9.099541401594355
7.761963293871635,5.208244091305238,10.39608094119354,9.511871713569876,16.180576449025605,9.050117692794858
7.8140457347846874,5.370049855795494,10.49119965832924,9.602372890497826,14.857699905908161,8.946648697802342
7.8677462333426424,5.518626854854576,10.587223387234218,9.69183937747585,13.450018145861733,8.78640282586872
7.9229325018911885,5.653127036313193,10.684141781008977,9.779703405734537,11.953383006240994,8.562364356223036
7.97946377225432,5.7726608663756025,10.781938815066322,9.865327049296768,10.360948043553604,8.262820379642097
8.037190380918076,5.876270346811139,10.88059208555929,9.94795525309319,8.663003620521382,7.871208121367587
8.095953084386188,5.962900383016352,10.980071638090221,10.026667334306865,6.84717443563438,7.366307553836757
8.155582088216352,6.031372127372696,11.08033831143329,10.100330409845233,4.8990650278512895,6.722869447672337
8.21589580949008,6.080362777651208,11.18134161553174,10.167559104321956,2.8034294578199366,5.91277178606363
8.276699437266592,6.108397072229407,11.28301720657496,10.226686822182593,0.5459194202175723,4.906791039889966
8.337783407988885,6.113856266431583,11.385284074796786,10.275754732581493,-1.884577934725222,3.677048506151517
8.398921970653202,6.0950104870843305,11.488041622122601,10.312525217643008,-4.493074666273908,2.200132448258494
8.459872075524045,6.050079740421592,11.59116687429903,10.334526542125593,-7.275262137167465,0.46079190345799864
8.520372872928261,5.977327119049917,11.694512139720286,10.339134461160173,-10.214255412044796,-1.5440566861335108
8.58014614411876,5.875184564929469,11.797903484331888,10.323693894298838,-13.277783358191952,-3.801460774845094
8.638897989768056,5.7424067313475495,11.901140423274876,10.285679286550387,-16.41644381930483,-6.279342349773498
8.696322057081531,5.578242293154501,12.00399721614038,10.222885863052651,-19.563694085673365,-8.924952095169239
8.752104480013076,5.382605352297768,12.106226074770907,10.133636342100958,-22.638141077845443,-11.6656033868576
8.805930533536053,5.156223941519313,12.207562438191916,10.016980308232382,-25.54838679843983,-14.412175328792078
8.857492772951247,4.900740073534915,12.30773224127424,9.872858554944461,-28.20018747914398,-17.065396869220105
8.906500173686595,4.6187381987434755,12.406460826823684,9.70220458625226,-30.505101224605628,-19.524299184690356
8.95268755567403,4.313687186497419,12.503482872686206,9.506961594405356,-32.389306029908106,-21.695626071976186
8.995824427539004,3.989794126198338,12.59855248863026,9.290005333685594,-33.80106001644231,-23.502635266655506
9.035722368800988,3.6517835260339147,12.691452541967115,9.054978981019039,-34.715466093639904,-24.891764906171986
9.072240204061327,3.3046288650975155,12.782002331777305,8.806061331957318,-35.13576659256951,-25.836095914886812
9.105286492712303,2.9532711991718203,12.870062945096878,8.54770037280845,-35.09115479095511,-26.33526889612967
9.134819204704021,2.6023596512622693,12.955539948824962,8.284347683847153,-34.63180182638393,-26.412270196856014
9.160842801216644,2.25604163299843,13.038383425663433,8.020224981878593,-33.82224915323983,-26.108054693453933
9.183403217546628,1.9178191414660315,13.118585675482219,7.759144434944054,-32.73441874395831,-25.47519668131379
9.202581408961288,1.5904749540264485,13.19617711983166,7.504392468130916,-31.44129044869331,-24.571664666211994
9.218486158501554,1.2760620495395154,13.271221044512968,7.258675821468796,-30.011919154613373,-23.455509502031976
9.23124677899695,0.9759428579933817,13.343807802727657,7.024120726448476,-28.508059136716287,-22.180878175824628
