th1 (rad),w1 (rad/s),th2 (rad),w2 (rad/s),a1 (rad/s^2),a2 (rad/s^2)
5.339039927421864,-2.6724006617593763,2.3192689700424407,0.07990490485718969,9.469219008954049,3.0861631539962433
5.312315920804271,-2.577708471669836,2.320068019091013,0.11076653639715213,9.839822510655162,3.543527773575982
5.286538836087573,-2.4793102465632844,2.3211756844549845,0.14620181413291194,10.14562799400427,3.898154081800521
5.2617457336219395,-2.3778539666232414,2.3226377025963134,0.18518335495091715,10.390791935148158,4.157348166182906
5.237967193955707,-2.27394604727176,2.3244895361458227,0.2267568366127462,10.580295052084985,4.329715697614356
5.2152277334829895,-2.16814309675091,2.32675710451195,0.27005399358888976,10.719656574991362,4.4246942729981855
5.193546302515481,-2.0609465310009965,2.3294576444478388,0.3143009363188716,10.81468051573293,4.452138624570783
5.17293683720547,-1.9527997258436671,2.3326006538110273,0.35882232256457947,10.87123871824819,4.421967876374049
5.1534088399470335,-1.8440873386611851,2.336188877036673,0.40304200132831997,10.895092679420278,4.343878642184125
5.1349679665604215,-1.7351364118669823,2.340219297049956,0.4464807877501612,10.891753830844587,4.2271233666792725
5.1176166024417515,-1.6262188735585363,2.344684104927458,0.48875202141695395,10.866380173305087,4.0803499530987395
5.101354413706166,-1.5175550718254855,2.3495716251416274,0.5295555209479413,10.823705851360517,3.911496372312655
5.086178862987911,-1.4093180133118803,2.354867180351107,0.5686704846710678,10.767999418879489,3.7277325294602583
5.072085682854792,-1.3016380191230854,2.3605538851978176,0.6059478099656704,10.703046129729746,3.5354410493295045
5.059069302663561,-1.194607557825788,2.3666133632974744,0.6413022204589655,10.63214952490417,3.3402286754594503
5.0471232270853035,-1.0882860625767463,2.373026385502064,0.67470450721356,10.558147800570056,3.1469604941500973
5.036240366459536,-0.9827045845710457,2.3797734305741995,0.706174112155061,10.483440850230245,2.9598100318418794
5.026413320613825,-0.8778701760687433,2.38683517169575,0.7357722124734798,10.410024402406135,2.7823192892711996
5.017634618853138,-0.7737699320446819,2.394192893820485,0.7635954053661917,10.33952825738231,2.6174638509159247
5.009896919532691,-0.6703746494708588,2.401828847874147,0.789770043875351,10.273256210584705,2.4677192551168683
5.003193173037983,-0.5676420873650118,2.4097265483129005,0.8144472364265197,10.212225798599068,2.3351257688535854
4.997516752164333,-0.4655198293790211,2.4178710206771656,0.8377984941150556,10.157206492767692,2.2213495463351296
4.992861553870543,-0.36394776445134414,2.4262490056183164,0.8600119895784069,10.108755382364958,2.127738847248338
4.98922207622603,-0.26286021062769455,2.4348491255141003,0.8812893780508902,10.0672497311517,2.0553745483819292
4.986593474119752,-0.16218771331617754,2.4436620192946092,0.9018431235347095,10.032916060610962,2.0051146109972926
4.984971596986591,-0.06185855271006792,2.4526804505299564,0.9218942696446825,10.005855617370575,1.977632481091281
4.98435301145949,0.03820000346363783,2.4618993932264033,0.9416705944555953,9.98606623035334,1.9734496185207535
4.984735011494126,0.13806066576717124,2.4713160991709593,0.9614050906408028,9.973460664918774,1.9929624920868567
4.986115618151798,0.23779527241635898,2.4809301500773673,0.9813347155616714,9.967881646281045,2.0364644582387927
4.988493570875962,0.3374740888791694,2.490743497232984,1.0016993601440594,9.9691137615826,2.1041629762520464
4.991868311764754,0.4371652264949954,2.5007604908344243,1.0227409899065798,9.976892466810915,2.1961926154943945
4.996239964029703,0.5369341511631045,2.51098790073349,1.0447029160615238,9.99091042767411,2.312624291357107
5.001609305541335,0.6368432554398457,2.5214349298941054,1.0678291589750948,10.010821417810934,2.4534711341266306
5.007977738095733,0.736951469617955,2.5321132214838564,1.0923638703163612,10.036241987431932,2.6186913561896
5.015347252791913,0.8373138894922743,2.54303686018702,1.1185507838782571,10.066751103868794,2.8081884426559554
5.023720391686836,0.9379814005309622,2.5542223680258025,1.1466326683048167,10.101887954967781,3.021808952666894
5.033100205692145,1.0390002800806402,2.5656886947088506,1.1768507578314857,10.141148098585445,3.2593381862696873
5.043490208492952,1.1404117610664946,2.5774572022871656,1.2094441396941826,10.183978137898935,3.5204939469682413
5.054894326103617,1.2422515424454839,2.5895516436841075,1.2446490791638651,10.22976910366964,3.8049186144661458
5.067316841528072,1.3445492334821803,2.601998134475746,1.2826982653085266,10.27784873146821,4.112169736764546
5.080762333862894,1.4473277207968622,2.6148251171288313,1.323819962676172,10.32747283430808,4.441709356244829
5.095235611070862,1.550602449139943,2.628063316755593,1.3682370562386204,10.377815988923352,4.792892300758099
5.1107416355622615,1.6543806090291766,2.641745687317979,1.4161659792462014,10.427961776471689,5.164953697622393
5.127285441652553,1.7586602267938936,2.6559073471104413,1.4678155162224253,10.476892844731658,5.556996004726802
5.1448720439204925,1.8634291552412101,2.6705855022726657,1.5233854762696935,10.523481087410413,5.967975896843943
5.1635063354729045,1.9686639661153142,2.6858193570353626,1.583065235238133,10.5664782649704,6.39669139407129
5.183192975134058,2.0743287487650184,2.701650009387744,1.6470321491788458,10.604507417850208,6.841769669389378
5.203936262621708,2.1803738229435203,2.718120330879532,1.7154498458727396,10.636055443960801,7.301656018921058
5.225740000851143,2.2867343773831283,2.7352748293382594,1.7884664060619502,10.659467224246223,7.774604515837379
5.248607344624975,2.393329049625591,2.7531594933988788,1.866212451220324,10.67294167889608,8.25867089028929
5.2725406351212305,2.5000584664145515,2.771821617911082,1.9487991601232169,10.674530118336396,8.751708175897317
5.297541219785376,2.6068037675979157,2.791309609512314,2.03631624188219,10.662137213459468,9.251365630637531
5.323609257461356,2.7134251397325104,2.811672771931136,2.1288298981885654,10.633524845408136,9.755091369299041
5.350743508858681,2.819760388186592,2.8329610709130217,2.226380811881556,10.586319004576355,10.26013903024081
5.378941112740547,2.925623578232355,2.8552248790318373,2.328982202183964,10.518019791205925,10.763578637485292
5.4081973485228705,3.0308037761444147,2.878514701053677,2.436617988558817,10.426014428527829,11.26231161032181
5.438505386284315,3.135063920429693,2.902880880939265,2.5492411046620354,10.307593039547973,11.753089621345204
5.469856025488612,3.238139850825173,2.9283732919858854,2.6667720008754876,10.15996676981146,12.232536720813574
5.502237423996864,3.3397395185232877,2.9550410119946404,2.7890973680836235,9.980287674335287,12.697173847548148
5.535634819182097,3.4395423952666406,2.9829319856754766,2.916069106559105,9.765669644872869,13.14344455839959
5.570030243134764,3.5371990917153693,3.0120926767410676,3.047503552143101,9.513209554691205,13.56774056023566
5.605402234051917,3.6323311872622814,3.042567712262499,3.1831809577454573,9.220007765426576,13.966425456631786
5.64172554592454,3.724531264916547,3.074399521839953,3.3228452123117753,8.88318719850188,14.33585506571915
5.678970858573706,3.813363136901566,3.107627973963071,3.466203762968967,8.499910344989077,14.67239276656849
5.717104489942722,3.8983622403514566,3.1422900115927606,3.6129276906346517,8.067393891936321,14.972418627070825
5.756088112346236,3.9790361792708198,3.178419288499107,3.76265187690536,7.582921092764095,15.23233158791425
5.795878474138944,4.054865390198461,3.2160458072681606,3.9149751927845022,7.043852607404598,15.448544745274265
5.836427128040929,4.1253039162725065,3.2551955591960056,4.069460640237245,6.447637274353677,15.617474793714164
5.877680167203653,4.189780289016043,3.295890165598378,4.225635388174386,5.791825124822156,15.735527944040145
5.919577970093814,4.247698540264264,3.338146519480122,4.382990667614788,5.074085860828792,15.799086075462727
5.962054955496456,4.298439398872552,3.38197642615627,4.540981528369415,4.292236920976607,15.804498441732585
6.005039349485182,4.341361768082318,3.4273862414399643,4.699026512786741,3.444286046237538,15.74808581203253
6.048452967166005,4.375804628544693,3.4743765065678316,4.8565073709070665,2.5284937955749407,15.626165328499805
6.092211013451452,4.401089566500443,3.5229415802769024,5.012769024192065,1.5434615738578052,15.43510539135732
6.136221909116457,4.416524182239021,3.573069270518823,5.167120078105638,0.48825021543468006,15.171420275510668
6.180387150938847,4.421406684393368,3.6247404712998796,5.318834280860745,-0.6374672122070657,14.831913630004944
6.22460121778278,4.415032012271297,3.677928814108487,5.4671534171607945,-1.833217183360039,14.413878181843076
6.268751537905493,4.396699840437696,3.7326003482800947,5.611292198979225,-3.097504590611761,13.91535554646126
6.312718536309871,4.3657247945315785,3.788713270269887,5.750445754443837,-4.4275662973647245,13.335454817001127
6.356375784255186,4.321449131557931,3.8462177278143255,5.883800302613849,-5.819113190854249,12.674721529955738
6.399590275570765,4.2632579996493885,3.905055730840464,6.010547517913406,-7.2660815959838,11.9355399582196
6.442222855567259,4.19059718368955,3.965161206019598,6.129902917495603,-8.760421958832698,11.122542157800197
6.484128827404154,4.102992964101223,4.026460235194554,6.2411283390736045,-10.291958611539085,10.242987981416512
6.525158757045166,4.000073377985832,4.0888715185852895,6.34355821888777,-11.848357711536837,9.30707303964477
6.565159490825025,3.881589800870464,4.152307100774167,6.436628949284217,-13.415239513488089,8.328118323066693
6.603975388833729,3.747437405735583,4.216673390267009,6.519910132514884,-14.976464611715924,7.322597858721554
6.641449762891085,3.597672759618424,4.281872491592158,6.593136111102099,-16.514610989211935,6.309970801680917
6.677426490487269,3.4325266497263045,4.347803852703179,6.656235819118908,-18.011640063144714,5.312302112524419
6.711751756984532,3.2524102490948574,4.414366210894368,6.709358840244152,-19.449727302186357,4.3536802472295175
6.744275859475481,3.057912976072994,4.481459799296809,6.752895642716448,-20.81220970708542,3.4594681772950104
6.774854989236211,2.8497908790021396,4.548988755723974,6.787490324489398,-22.08458275965174,2.6554512498934737
6.803352898026232,2.6289450514056223,4.616863658968867,6.814044836988333,-23.255467713686993,1.966966989885225
6.829642348540289,2.3963903742687522,4.6850041073387505,6.833714506887185,-24.317469664500837,1.4181136284643976
6.853606252282976,2.1532156776237437,4.753341252407623,6.847895643171829,-25.267859013198443,1.0311334032044237
6.875138409059214,1.900537087491759,4.821820208839341,6.858206977203873,-26.109032507503407,0.8260536167950118
6.894143779934131,1.639446762416725,4.89040227861138,6.866467513371823,-26.848741378307384,0.820645916865654
6.910538247558298,1.3709593486336513,4.959066953745098,6.87467397254048,-27.500108058090824,1.0307372009731994
6.924247841044635,1.095958268052743,5.027813693470502,6.884981344550212,-28.081484154045075,1.4708797188835327
6.935207423725163,0.8151434265122923,5.096663506916005,6.899690141739048,-28.616226291965297,2.15536844124567
6.943358857990286,0.5289811635926394,5.1656604083333955,6.921243826151504,-29.132480336203884,3.099583690450721
6.948648669626213,0.2376563602306005,5.234872846594911,6.9522396630560115,-29.663067016146535,4.321636410431609
6.951025233228519,-0.05897430993086483,5.304395243225471,6.995456027160327,-30.2455520791418,5.8442981300309755
6.95043549012921,-0.36142983072228285,5.374349803497075,7.053899008460637,-30.922558165855698,7.697197219464031
6.946821191821987,-0.6706554123808398,5.444888793581681,7.130870980655278,-31.742322363923247,9.919235632301598
6.940114637698178,-0.9880786360200723,5.516197503388233,7.230063336978294,-32.759393528198274,12.561080404597885
6.930233851337977,-1.315672571302055,5.588498136758016,7.355674141024273,-34.03512813422356,15.687313879835521
6.917077125624957,-1.6560238526442905,5.6620548781682585,7.512547279822628,-35.63712780144811,19.377171527545272
6.900516887098513,-2.0123951306587715,5.737180350966485,7.706318995098081,-37.63562409692851,23.721284208382272
6.880392935791925,-2.3887513716280564,5.814243540917466,7.9435318371819035,-40.092318136041335,28.808445610334942
6.856505422075645,-2.78967455298847,5.893678859289285,8.231616293285253,-43.031793926309454,34.68899966566223
6.82860867654576,-3.2199924922515644,5.975995022222137,8.578506289941876,-46.37451478347102,41.28597135662801
6.796408751623244,-3.6837376400862745,6.061780085121556,8.991366003508157,-49.789992504373636,48.19630820948552
6.759571375222381,-4.181637565130011,6.151693745156638,9.473329085603012,-52.40265185324691,54.28702539349347
6.717754999571081,-4.70566408366248,6.246427036012668,10.016199339537946,-52.30183278342225,57.01390262040464
6.670698358734456,-5.2286824114967025,6.346589029408047,10.586338365741993,-46.08753256654001,51.77357562569637
6.618411534619489,-5.689557737162103,6.452452413065467,11.104074121998956,-29.653777131313248,32.94308417912412
6.5615159572478685,-5.986095508475235,6.563493154285457,11.433504963790197,-2.3446112811211353,-0.4374274654763514
6.501655002163116,-6.009541621286447,6.677828203923359,11.429130689135434,27.734967558127835,-37.40312676508305
6.441559585950252,-5.732191945705169,6.792119510814714,11.055099421484604,48.270004820700315,-61.39349462659203
6.3842376664932,-5.2494918974981655,6.90267050502956,10.441164475218685,55.274344096798245,-67.35626957626187
6.331742747518218,-4.696748456530183,7.007082149781747,9.767601779456065,53.58133005575202,-62.10131470237331
6.284775262952916,-4.160935155972663,7.104758167576307,9.146588632432332,48.65710004139597,-53.029654411332174
6.24316591139319,-3.674364155558703,7.196224053900631,8.61629208831901,43.357848800128885,-43.87378203330984
6.206422269837603,-3.240785667557414,7.282386974783821,8.177554267985911,38.691441666417,-35.85899226271008
6.174014413162029,-2.8538712508932442,7.364162517463679,7.81896434535881,34.86517309312541,-29.162512556385042
6.145475700653097,-2.50521951996199,7.442352160917268,7.52733921979496,31.815520088919268,-23.629873051705964
6.120423505453477,-2.1870643190727974,7.517625553115217,7.2910404892779,29.41272833133501,-19.042478616381448
6.098552862262749,-1.8929370357594473,7.5905359580079965,7.1006157031140855,27.528667006578775,-15.201350140494498
6.079623491905155,-1.6176503656936596,7.661542115039137,6.94860220170914,26.054768286707095,-11.945945741027659
6.063446988248218,-1.3571026828265886,7.731028137056229,6.8291427442988635,24.90338590870287,-9.15261705093301
6.049875961419953,-1.10806882373956,7.799319564499218,6.737616573789533,24.00446331095055,-6.728080395787352
6.038795273182557,-0.8680241906300544,7.866695730237113,6.670335769831659,23.301502571951897,-4.602779862229914
6.030115031276257,-0.6350091649105355,7.93339908793543,6.62430797120936,22.748026279624085,-2.725410096683715
6.023764939627151,-0.4075289021142946,7.999642167647524,6.597053870242523,22.304775120461557,-1.058701162948099
6.019689650606008,-0.18448115090967904,8.065612706349949,6.586466858613043,21.937592741119133,0.4237551903131521
6.017844839096911,0.03489477650151229,8.131477374936079,6.5907044105161745,21.615885044202283,1.7399048049642407
6.018193786861926,0.25105362694353517,8.19738441904124,6.608103458565817,21.31154846697203,2.901088706620832
6.020704323131361,0.46416911161325547,8.263465453626898,6.637114345632026,20.99828601655624,3.9135419517899743
6.025346014247494,0.6741519717788178,8.329836597083219,6.676249765149925,20.6512521294021,4.779669804999363
6.0320875339652815,0.8806644930728388,8.396599094734718,6.724046463199919,20.246981917180854,5.499196503657347
6.04089417889601,1.0831343122446473,8.463839559366717,6.779038428236492,19.76356576195205,6.070245657334331
6.051725522018456,1.280769969864168,8.531629943649081,6.839740884809836,19.181027068189838,6.4903778937832515
6.064533221717098,1.4725802405460664,8.600027352497179,6.904644663747669,18.48185098413277,6.7575800816804685
6.079259024122559,1.6573987503873941,8.669073799134656,6.972220464564473,17.65159799711967,6.87117252996117
6.095833011626432,1.8339147303585908,8.738796003780301,7.040932189864085,16.679522680503844,6.832579035832164
6.114172158930018,2.0007099571636293,8.809205325678942,7.109257980222407,15.55910966283457,6.645893842050618
6.134179258501654,2.156301053791975,8.880297905481166,7.175716918642913,14.288441276760715,6.318183784681787
6.155742269039574,2.299185466559582,8.952055074667594,7.238898756489731,12.870328054276433,5.859485673227701
6.178734123705169,2.4278887471023465,9.024444062232492,7.2974936132220085,11.312164857577182,5.282497054560196
6.203013011176193,2.5410103956781183,9.097418998364713,7.350318583767611,9.625518179842823,4.602006883671035
6.228423115132974,2.6372655774765463,9.17092218420239,7.396338652604321,7.825495809429129,3.834160594851249
6.254795770907739,2.7155205355708376,9.244885570728433,7.4346802585528335,5.9299876489788215,2.9956886513429275
6.281950976263447,2.7748204120606257,9.319232373313962,7.464637145066263,3.958885419058681,2.1032373419623216
6.309699180384054,2.8144092662512126,9.393878744764624,7.485669518485886,1.9333826924997586,1.1729194501500613
6.337843273046566,2.83374309317621,9.468735439949484,7.497398712987387,-0.12457458185766944,0.2201527909581863
6.366180703978328,2.8324973473576334,9.543709427079358,7.499600240896969,-2.1926656114535565,-0.7402128039307487
6.394505677451904,2.8105706912430977,9.618705429488328,7.492198112857662,-4.248432008450051,-1.6935484046589375
6.422611384364335,2.768086371158597,9.693627410616905,7.475262628811072,-6.269449345408428,-2.625000424345342
6.450292248075921,2.7053918777045127,9.768380036905016,7.449012624567619,-8.233528506273274,-3.519092573995543
6.477346166852966,2.62305659264178,9.842870163150693,7.413821698827663,-10.11903546346108,-4.359511010877947
6.503576732779384,2.5218662380071692,9.917008380138968,7.370226588718883,-11.905385385923116,-5.129166272833782
6.528795395159455,2.4028123841479383,9.990710646026157,7.318934925990545,-13.573717178195425,-5.810562248197531
6.552823519000935,2.267075212365984,10.063899995286063,7.26082930350857,-15.107700820913005,-6.386433052885167
6.575494271124595,2.115998204156854,10.136508288321147,7.196964972979718,-16.49438612136456,-6.8405492649052615
6.596654253166164,1.9510543429432083,10.208477938050944,7.128559480330665,-17.724978588194286,-7.158558291487393
6.616164796595596,1.7738045570612655,10.27976353285425,7.056973897415792,-18.79543121903511,-7.328716277423217
6.633902842166209,1.5858502448709144,10.350333271828408,6.98368673464156,-19.706768271008883,-7.342389982920529
6.649761344614918,1.3887825621608256,10.420170139174823,6.910262834812355,-20.46510091744346,-7.194248913350563
6.663649170236526,1.184131552986391,10.489272767522946,6.8383203456788495,-21.081344158724022,-6.882119121174354
6.67549048576639,0.9733181113991507,10.557655970979734,6.769499154467106,-21.570688577008,-6.406518435975265
6.685223666880381,0.7576112256290707,10.625350962524406,6.705433970107354,-21.9519115356216,-5.769928904732698
6.692799779136672,0.5380921102728546,10.69240530222548,6.647734681060027,-22.246626714754477,-4.975880852443525
6.6981807002394005,0.31562584312530984,10.75888264903608,6.597975872535591,-22.47856938839657,-4.027923764140938
6.7013369586706535,0.09084014924134415,10.824862407761437,6.557696634894182,-22.673001754863275,-2.9285452677400885
6.702245360163067,-0.1358898683072886,10.890439374110379,6.5284111822167805,-22.856303563720285,-1.6780758131516027
6.700886461479994,-0.3644529039444915,10.955723485932547,6.511630424085265,-23.05579366020274,-0.2735882922980139
6.69724193244055,-0.5950108405465189,11.0208397901734,6.5088945411622845,-23.299811959063675,1.292227053620059
6.691291824035084,-0.8280089601371556,11.085928735585021,6.521816811698485,-23.61808086884195,3.0322587250227704
6.6830117344337125,-1.064189768825575,11.151146903702006,6.552139398948713,-24.042360159142653,4.966309649834296
