th1 (rad),w1 (rad/s),th2 (rad),w2 (rad/s)
3.5285718065785274,2.131899814813135,2.2720194776907245,-0.4368390580713632
3.5498908047266586,2.1749241042165606,2.267651087110011,-0.4817907202439081
3.571640045768824,2.2187370051118958,2.262833179907572,-0.5240640005285957
3.593827415819943,2.2633795365096527,2.2575925399022863,-0.5635333114152368
3.6164612111850394,2.308904711805465,2.2519572067881337,-0.6000696509796604
3.639550258303094,2.355378016858479,2.245956510278337,-0.6335393483975217
3.663104038471679,2.40287789010297,2.239621116794362,-0.6638026311057708
3.6871328173727087,2.4514962140448384,2.232983090483304,-0.690712016818676
3.7116477795131573,2.5013388273894446,2.226075970315117,-0.7141105352231605
3.7366611677870516,2.5525260661888356,2.2189348649628853,-0.7338297858437086
3.76218642844894,2.605193340686451,2.2115965671044484,-0.7496878405324515
3.7882383618558046,2.659491751857459,2.2040996886991238,-0.7614870016359278
3.8148332793743793,2.71558874784209,2.1964848186827646,-0.7690114305315426
3.8419891668528003,2.773668815351687,2.188794704377449,-0.7720246664215553
3.869725855006317,2.833934194439676,2.1810744577132333,-0.7702670626307598
3.898065196950714,2.896605596452501,2.173371787086926,-0.7634531778997584
3.927031252915239,2.9619228941167277,2.165737255307928,-0.75126917414562
3.956650481856406,3.030145739115085,2.158224563566472,-0.733370290848779
3.986951939247557,3.1015540456353747,2.150890860657984,-0.7093784907086473
4.017967479703911,3.176448257694314,2.1437970757508973,-0.6788804026627887
4.049731962280854,3.2551492930266663,2.1370082717242695,-0.641425727968026
4.082283455211121,3.3379980265999087,2.1305940144445894,-0.5965263238564731
4.11566343547712,3.425354142257004,2.1246287512060245,-0.5436562380228623
4.14991697689969,3.5175941419987717,2.119192188825796,-0.4822530359069924
4.185092918319678,3.6151082602031583,2.114369658466726,-0.4117208402637335
4.221244000921709,3.7182959870821697,2.1102524500640887,-0.33143558585904265
4.258426960792531,3.827559866080715,2.106938094205498,-0.24075307554829145
4.296702559453338,3.943297200221798,2.104530563450015,-0.1390204979485994
4.336135531455556,4.065889291954005,2.103140358470529,-0.025592116987589564
4.376794424375095,4.19568786241354,2.102884437300653,0.10015015042002631
4.4187513029992305,4.332998364781044,2.1038859388048534,0.23877061674736236
4.462081286647041,4.478060040215396,2.106273644972327,0.3907476806864144
4.506861887049195,4.631022780896291,2.110181121779191,0.5564354742498228
4.553172114858158,4.791921175532174,2.115745476521689,0.7360195818174358
4.60109132661348,4.960646519800948,2.1231056723398636,0.9294677584984722
4.650697791811489,5.1369180601424445,2.1324003499248483,1.1364773890964988
4.702066972412914,5.3202552597010175,2.1437651238158133,1.3564223578680077
4.755269525009925,5.5099533535219765,2.1573293473944934,1.588302936426883
4.810369058545144,5.705064789731488,2.1732123767587623,1.8307030797788415
4.867419706442459,5.904389211167368,2.1915194075565507,2.081759944174427
4.9264635985541325,6.1064743053553086,2.212337006998295,2.3391502963461948
4.987528341607685,6.309629076916041,2.235728509961757,2.6000976170769636
5.050624632376846,6.511949902346904,2.261729486132527,2.861402080909688
5.115744131400315,6.711358255213827,2.290343506941624,3.1194933634987776
5.182857713952453,6.905647492426521,2.3215384405766115,3.370503723831835
5.251914188876718,7.092534884479146,2.35524347781493,3.610356505115863
5.322839537721509,7.269714451058332,2.3913470428660886,3.834863598633203
5.395536682232093,7.434906317035138,2.4296956788524207,4.039824909216238
5.469885745402444,7.585899249723222,2.470093927944583,4.221123604680424
5.5457447378996765,7.720584611452545,2.512305163991387,4.374812792722857
5.622950584014202,7.836981862311769,2.556053291918616,4.497191863464119
5.70132040263732,7.9332576258677765,2.601025210553257,4.584873533084739
5.780652978895998,8.007741868531985,2.646873945884104,4.634845074513804
5.860730397581317,8.0589457087947,2.6932223966292423,4.644528859114663
5.941319854669264,8.085585624993652,2.739667685220389,4.6118478243968
6.022175710919201,8.086618291696642,2.785786163464357,4.535300622154854
6.103041893836167,8.061288894100311,2.8311391696859056,4.41404889452514
6.18365478277717,8.009193511939692,2.875279658631157,4.248015393680088
6.2637467178965665,7.930353049506286,2.917759812567958,4.037986705582235
6.343050248391629,7.825292388588918,2.9581396796237804,3.785708666156303
6.4213031722775185,7.695114410011658,2.9959967662853435,3.493957124390783
6.498254316377635,7.541555100259689,3.0309363375292513,3.1665629728364606
6.573669867380232,7.3670043122881514,3.0626019672576157,2.8083701324028274
6.6473399105031135,7.174478145992223,3.090685668581644,2.4251100779094488
6.719084691963036,6.967534182734593,3.1149367693607384,2.02318717483038
6.788760033790382,6.750129727632238,3.135168641109042,1.6093844075686827
6.856261331066705,6.526434123556715,3.151262485184729,1.1905157266612973
6.921525672302272,6.300616223225761,3.163167642451342,0.7730644827695856
6.984531834534529,6.076634091030274,3.1708982872790377,0.3628527442629117
7.045298175444832,5.858053869157491,3.1745268147216668,-0.03521853633830191
7.103878714136407,5.647918466609057,3.1741746293582835,-0.41733232063620784
7.160357898802498,5.448676414484838,3.1700013061519217,-0.7808135254100697
7.214844662947346,5.26217012657802,3.162193170897821,-1.1240922876344466
7.267466364213126,5.089673910880094,3.1509522480214764,-1.4465949814494565
7.318363103321927,4.931967089120502,3.136486298206982,-1.7485909762217002
7.367682774213132,4.789426620211362,3.119000388444765,-2.0310221031556
7.415577040415246,4.662125671785455,3.098690167413209,-2.295336477750793
7.462198297133101,4.5499281953381425,3.075736802635701,-2.5433412506671296
7.507697579086482,4.452573449328619,3.05030339012903,-2.777082046357723
7.552223313579768,4.369747745101964,3.0225325696654526,-2.9987514388076226
7.595920791030788,4.301143092647381,2.9925450552773762,-3.210625150717765
7.638932221957262,4.246503860140371,2.9604388037701987,-3.4150225608691587
7.681397260558666,4.205663162339148,2.926288578161507,-3.614287121128169
7.723453892182057,4.178570615673249,2.8901457069502254,-3.8107819018311293
7.765239598338789,4.165312432033647,2.852037887931914,-4.006895184303754
7.806892722659126,4.166123522607464,2.8119689360888764,-4.20505026559287
7.8485539578852,4.1813890979196415,2.769918433432948,-4.407711782845386
7.890367848864397,4.21162963305239,2.725841315604494,-4.617376971902059
7.932484145194921,4.257457032008115,2.6796675458854735,-4.836532894297842
7.975058715515002,4.319479780837852,2.631302216942495,-5.067547549957422
8.01825351332338,4.39811859165135,2.5806267414429205,-5.312440802155421
8.062234699239893,4.493269319161539,2.527502333421366,-5.572447063199795
8.107167392431508,4.603717813421232,2.4717778627893683,-5.847237014562115
8.15320457056572,4.726186178851401,2.413305492643747,-6.133629935061013
8.200466432354233,4.853924040855528,2.351969193293137,-6.423674123063381
8.249005672762788,4.974984140198173,2.287732452062503,-6.702284527318497
8.29875551416477,5.070955679660349,2.220709606789318,-6.945506599157187
8.349465070961372,5.1180079394090265,2.1512545407977464,-7.121975209035972
8.400645150355462,5.092615858274408,2.0800347887073865,-7.200854989742546
8.451571308938206,4.981742590350334,2.008026238809961,-7.165920905642988
8.50138873484171,4.791101054978611,1.936367029753531,-7.026878920518196
8.549299745391496,4.543199995161469,1.866098240548349,-6.816441135038351
8.594731745343111,4.266100457969829,1.7979338291979656,-6.574593691634952
8.63739274992281,3.982761848236012,1.732187892281616,-6.333876049843559
8.67722036840517,3.7071900401646536,1.6688491317831804,-6.1142177551622305
8.714292268806815,3.4457634029679647,1.607706954231558,-5.924946039342372
8.748749902836495,3.200023282284407,1.5484574938381344,-5.768756084680592
8.78075013565934,2.9689637131854143,1.4907699329913284,-5.644928885913917
8.810439772791193,2.75044866882577,1.4343206441321892,-5.55130775829534
8.837944259479452,2.541967558668618,1.3788075665492359,-5.485344374862502
8.863363935066138,2.3409951808916114,1.3239541228006109,-5.444592546275813
8.886773886875053,2.1451412205636915,1.2695081973378528,-5.426909645622047
8.90822529908069,1.9521961885958914,1.2152391008816323,-5.4305143559756806
8.92774726096665,1.7601304669445106,1.1609339573218755,-5.4539785583652165
8.945348565636094,1.5670751180677802,1.1063941717382233,-5.4961917982156825
8.961019316816772,1.3712985335534387,1.0514322537560665,-5.556316225957057
8.974732302152306,1.1711857307369584,0.9958690914964959,-5.633739546671264
8.986444159459676,0.9652236438267515,0.9395316960297833,-5.72802839797228
8.996096395897943,0.7519942200769989,0.8822514120500604,-5.838882095907204
9.003616338098713,0.5301765452152766,0.8238625910909884,-5.9660855229985374
9.008918103550865,0.2985590731241686,0.7642017358610029,-6.10945943695228
9.011903694282108,0.05606303626293288,0.7031071414914801,-6.26880636584021
9.012464324644737,-0.19822192114324202,0.640419077833078,-6.443850431579435
9.010482105433304,-0.46498906864588707,0.5759805735172837,-6.634169925386795
9.005832214746846,-0.7446526197471006,0.5096388742634158,-6.839122330658792
8.998385688549375,-1.0372732763189618,0.4412476509568279,-7.057762868104238
8.988012955786186,-1.3424738086859132,0.3706700222757855,-7.288759635347101
8.974588217699326,-1.6593496458579393,0.29778242592231446,-7.5303110693560855
8.957994721240746,-1.9863826015749098,0.2224793152287536,-7.780074654295041
8.938130895224997,-2.3213694197655004,0.1446785686858032,-8.035119132681197
8.914917201027343,-2.6613801310848153,0.06432737735899122,-8.29191517470202
8.888303399716495,-3.002763187081842,-0.018591774388028975,-8.546380331053951
8.858275767845676,-3.3412135633919955,-0.10405557769856849,-8.793991700299703
8.824863632211756,-3.671915101032034,-0.19199549470156552,-9.029972836441443
8.788144481201435,-3.989758555581354,-0.28229522306598,-9.249549680257338
8.748246895645622,-4.289622875799919,-0.3747907198685534,-9.44825510973569
8.705350666887622,-4.566691852667376,-0.4692732709659103,-9.62224656549352
8.659683748360948,-4.81676590225968,-0.5654957366208455,-9.768591126923285
8.61151608933835,-5.036524138763539,-0.6631816478900784,-9.885472136589232
8.561150847950715,-5.223698002159459,-0.7620363692559707,-9.972283069137372
8.50891386792912,-5.37713383087408,-0.8617591999473444,-10.029595556230017
8.45514252962038,-5.49674335073646,-0.9620551555096446,-10.059013088659297
8.400175096113015,-5.583361467117596,-1.0626452863962377,-10.062942305727484
8.34434148144184,-5.638544223924518,-1.1632747094535125,-10.044324319944865
8.287956039202594,-5.664343709275436,-1.2637179526529612,-10.006367753654356
8.23131260210984,-5.663092061293731,-1.3637816301895047,-9.952315678796067
8.174681681496903,-5.637216967235167,-1.4633047869774654,-9.88526515619304
8.11830951182455,-5.589100035694295,-1.5621574385393957,-9.808045056181227
8.062418511467607,-5.5209800386485055,-1.660237889101208,-9.723148114772977
8.007208711081121,-5.434896623003731,-1.7574693702489377,-9.632707598487885
7.952859744851084,-5.332666744730141,-1.8537964462338166,-9.53850698194396
7.899533077403783,-5.215885118690507,-1.9491815160532562,-9.442011534082695
7.8473742262168775,-5.085940531690152,-2.043601631394083,-9.344412494799956
7.796514820899976,-4.9440411737075385,-2.1370457563420824,-9.24667672482328
7.7470744091629005,-4.791243673238729,-2.2295125235903153,-9.14959680068701
7.699161972430513,-4.628481974772758,-2.3210084915971856,-9.053838264309505
7.652877152682786,-4.456593435477311,-2.4115468742402806,-8.959982070223559
7.608311218328012,-4.276340512480978,-2.5011466949425163,-8.868561246825285
7.565547813203202,-4.0884271803116965,-2.589832307410769,-8.780091479617287
7.524663541400085,-3.893509795624459,-2.677633222206942,-8.695095812504283
7.485728443443841,-3.6922025481020713,-2.7645841803319846,-8.614124010241026
7.44880641796282,-3.485077929530619,-2.850725420434395,-8.537767374655267
7.413955638667514,-3.272662836592023,-2.9361030941809476,-8.466669986757605
7.381229010301594,-3.0554310101452766,-3.020769794048524,-8.401537473044023
7.350674700200141,-2.8337925151827044,-3.1047851687789643,-8.343144478568624
7.322336775048314,-2.608080891426518,-3.1882166135646504,-8.292342082005069
7.29625596613405,-2.378538465901572,-3.2711400343847012,-8.250066420837578
7.272470581475034,-2.1453001283806867,-3.353640698593077,-8.217349822618726
7.251017580191227,-1.908375642037861,-3.4358141968192646,-8.195335777717615
7.231933823770848,-1.6676303096315204,-3.517767554596441,-8.185299157265693
7.215257520674532,-1.422763556927976,-3.5996205461690978,-8.188673190674413
7.201029885105252,-1.1732847532095596,-3.6815072780758418,-8.207084873061506
7.189297037573157,-0.9184854040278684,-3.7635781268064568,-8.242400652289176
7.180112183532878,-0.6574068045253143,-3.8460021333293484,-8.296784372175022
7.1735381154876245,-0.38880250214205186,-3.9289699770510986,-8.37276933108462
7.169650090466204,-0.11109584488850505,-4.012697670361945,-8.473345514453426
7.168539132017319,0.1776647533218278,-4.097431125506479,-8.602060608182127
7.1703157795505374,0.47984480968430754,-4.183451731588301,-8.763127201036562
7.175114227647381,0.7982372119262362,-4.271083003598666,-8.961514140416892
7.183096599766643,1.1360050240990087,-4.360698145002835,-9.202967770379564
7.194456650007633,1.4964554510792012,-4.45272782270663,-9.493838920270413
7.209421204518425,1.8824376732749895,-4.547666211909334,-9.840444816236817
7.2282455812511754,2.294944163198466,-4.646070660071702,-10.247403054826957
7.25119502288316,2.7301249601869104,-4.748544690619972,-10.713857612697385
7.27849627248503,3.1734730157484856,-4.855683266746945,-11.225862919079773
7.310231002642515,3.5901667973959888,-4.967941895937743,-11.743420614502819
7.346132670616474,3.9142530936110074,-5.085376102082772,-12.18559273423444
7.385275201552584,4.051011754794155,-5.207232029425116,-12.432971543173169
7.425785319100526,3.9177711626813703,-5.331561744856848,-12.38173198492892
7.46496303072734,3.5128046300369378,-5.455379064706137,-12.034800185288244
7.500091077027709,2.9273299435868063,-5.575727066559019,-11.515021975460133
7.529364376463577,2.2718374556566268,-5.69087728631362,-10.964666550588191
7.552082751020143,1.615965801135459,-5.800523951819502,-10.467395382866744
7.568242409031498,0.9873461042123383,-5.90519790564817,-10.050271818747708
7.5781158700736215,0.3911352842783531,-6.005700623835647,-9.711460249280591
7.582027222916405,-0.17594983585970636,-6.102815226328453,-9.43897828231284
7.5802677245578085,-0.7191168524072283,-6.197205009151582,-9.218885226256724
7.573076556033736,-1.2430403582832166,-6.289393861414149,-9.03804576547024
7.560646152450904,-1.751108736012653,-6.379774319068852,-8.884749139693414
7.543135065090777,-2.2453071721236233,-6.468621810465786,-8.748620166634584
7.52068199336954,-2.726317821311091,-6.556108012132132,-8.620367670132708
7.49341881515643,-3.1936875545041357,-6.642311688833459,-8.4915581892682
7.461481939611388,-3.6460168887025173,-6.727227270726141,-8.354469414828
7.425021770724363,-4.08116009569328,-6.810771964874421,-8.202029791449764
7.38421016976743,-4.496436722984447,-6.892792262788919,-8.027833507657306
7.339245802537586,-4.88885487478681,-6.973070597865492,-7.826213452015389
7.290357253789717,-5.255343127547172,-7.051332732385646,-7.592351700656963
7.237803822514246,-5.592983829439112,-7.127256249392215,-7.322405756946811
7.1818739842198545,-5.8992372569187,-7.200480306961683,-7.013628832106352
7.1228816116506675,-6.172144444614125,-7.270616595282747,-6.664464048871126
7.061160167204526,-6.410496709462845,-7.337261235771458,-6.274595526180972
6.997055200109897,-6.61396177401884,-7.400007191033268,-5.844943557148734
6.930915582369709,-6.783159508014889,-7.458456626604756,-5.377596080282631
6.86308398728956,-6.919684140820235,-7.512232587407582,-4.875673966855645
6.7938871458813574,-7.026073946789281,-7.560989327076139,-4.343133054663811
6.723626406413465,-7.10573362099936,-7.604420657622777,-3.7845111803327334
6.652569070203471,-7.1628186594359375,-7.642265769426104,-3.2046334167580097
6.580940883609112,-7.2020947666720065,-7.674312103593684,-2.6082927447668993
6.508919935942392,-7.228788199660041,-7.700395031041353,-1.9999256503794827
6.436632053945791,-7.248444479315539,-7.7203942875451474,-1.3833018214473205
6.364147609152636,-7.266812606690645,-7.734227305759621,-0.7612438417835182
6.2914794830857295,-7.2897696112017805,-7.741839744177456,-0.1353870086415987
6.2185817869737114,-7.323295978281875,-7.743193614263872,0.4940173475320868
6.145348827190893,-7.373506159670506,-7.738253440788552,1.1282566772808096
6.071613765594188,-7.44672882857431,-7.726970874015744,1.7702707364748136
5.997146477308445,-7.549614855592886,-7.709268166650996,2.424709617031947
5.921650328752516,-7.689216816390995,-7.685021070480676,3.0978781216485
5.844758160588606,-7.872908040781272,-7.654042289264192,3.7974015288575687
5.766029080180793,-8.107839026015204,-7.616068273975616,4.531205394296291
5.684950689920641,-8.399260636812924,-7.570756220032653,5.304880518384527
5.600958083552512,-8.746325925075238,-7.5177074148488074,6.115495750932212
5.51349482430176,-9.132962642439628,-7.456552457339486,6.938501476319317
5.422165197877364,-9.5116455911208,-7.387167442576293,7.704749035731058
5.327048741966156,-9.786114105675315,-7.310119952218982,8.276325882885677
5.229187600909403,-9.825471320822363,-7.227356693390125,8.467190053867492
5.130932887701179,-9.55348260522791,-7.14268479285145,8.170407948592617
5.0353980616489,-9.043146442735532,-7.060980713365524,7.492629108680928
4.944966597221545,-8.454815749007984,-6.986054422278714,6.666499917615742
4.860418439731466,-7.903912226956477,-6.919389423102557,5.862217838450116
4.781379317461901,-7.432028727614288,-6.860767244718056,5.14490430417404
4.707059030185758,-7.040979101117358,-6.809318201676315,4.521962316300208
4.636649239174584,-6.719793261954229,-6.7640985785133125,3.9813358263612986
4.569451306555042,-6.455876464244287,-6.724285220249699,3.5076437742364086
4.504892541912599,-6.238313355653311,-6.689208782507335,3.087177046241394
4.442509408356066,-6.058392914520771,-6.658337012044921,2.7088765465120197
4.381925479210858,-5.909339809284579,-6.6312482465798,2.3641136072836524
4.322832081118013,-5.785904303287037,-6.607607110506964,2.0462180330114172
4.2649730380851425,-5.683995276526082,-6.58714493017685,1.750032754098579
4.208133085319882,-5.600391925213143,-6.569644602635864,1.4715572589811534
4.15212916606775,-5.532527348869544,-6.554929030046052,1.2076776474213524
4.096803892579055,-5.478328608601018,-6.542852253571839,0.9559660737668852
4.042020606493044,-5.436098902158369,-6.5332925928341705,0.714532055546208
3.9876596174714605,-5.4044306281439125,-6.526147272278709,0.48191144265529706
3.9336153111900214,-5.382141080889434,-6.521328157852156,0.2569823817914514
3.8797939003811273,-5.3682248327921664,-6.518758334034241,0.038900515527989454
3.8261116520532057,-5.361818536727675,-6.518369328878961,-0.17295214585354593
3.772493466685929,-5.362175051118015,-6.520098850337496,-0.3790086182232395
3.718871716174749,-5.368644589878495,-6.523888936519729,-0.5795513431614056
3.665185270275964,-5.3806611386288425,-6.5296844499513425,-0.7747414391421793
3.6113786588896755,-5.397732740441038,-6.537431864342764,-0.9646439760135459
3.557401331485265,-5.41943450086773,-6.547078304102899,-1.1492499356161272
3.5032069864765876,-5.445403338710923,-6.558570803459061,-1.3284951452109564
3.4487529530894783,-5.475333648971011,-6.57185575491117,-1.5022762076302099
3.393999616599768,-5.5089731701921,-6.586878516987472,-1.6704632901695016
3.338909884897847,-5.546118473386809,-6.603583149889167,-1.8329095621078457
3.283448700163979,-5.586609619338506,-6.621912245510246,-1.9894570753504799
3.227582603970594,-5.630323664341309,-6.641806816263751,-2.1399389476783828
