th1 (rad),w1 (rad/s),th2 (rad),w2 (rad/s),a1 (rad/s^2),a2 (rad/s^2)
4.615838558020432,0.1229484177780438,3.0055917268877996,-0.9364019976291033,9.297601533841544,-0.9468997318155569
4.617068042198212,0.21592443311645926,2.9962277069115086,-0.9458709949472588,9.28601336020003,-0.9084842853311189
4.619227286529377,0.30878456671845955,2.986768996962036,-0.95495583780057,9.276381801524824,-0.8444133001769581
4.622315132196562,0.4015483847337078,2.9772194385840303,-0.9633999708023396,9.26946991940832,-0.7547349508151546
4.626330616043899,0.494243083927791,2.967585438876007,-0.9709473203104911,9.266101927702772,-0.6394532960459275
4.631273046883177,0.5869041032048187,2.9578759656729017,-0.9773418532709504,9.267160463327768,-0.49851736956224807
4.637142087915225,0.6795757078380964,2.9481025471401923,-0.9823270269665728,9.273583146590925,-0.3318100800100448
4.643937844993606,0.7723115393040056,2.9382792768705266,-0.9856451277666732,9.286358469276008,-0.13913717350685348
4.651660960386646,0.8651751239967658,2.9284228255928597,-0.9870364995017418,9.306521018887072,0.07978344073600073
4.660312711626614,0.9582403341856365,2.918552460597842,-0.9862386650943817,9.3351460082963,0.3253316486530217
4.669895114968471,1.0515917942685995,2.9086900739468984,-0.9829853486078515,9.373343030987087,0.597993961191706
4.680411032911157,1.1453252245784704,2.89886022046082,-0.9770054089959345,9.422248902660305,0.898370735108976
4.691864285156941,1.2395477136050734,2.8890901663708606,-0.9680217016448447,9.48301937997666,1.2271812236158695
4.704259762292992,1.33437790740484,2.8794099493544123,-0.955749889408686,9.556819466780567,1.585265800851149
4.7176035413670405,1.4299461020726458,2.8698524504603253,-0.9398972314001744,9.64481192792263,1.9735845923858994
4.731903002387767,1.5263942213518722,2.8604534781463236,-0.9201613854763154,9.748143532122189,2.393211613874382
4.747166944601286,1.623875656673094,2.8512518642915605,-0.8962292693375716,9.867928440599554,2.845323371565902
4.763405701168017,1.7225549410790897,2.842289571598185,-0.8677760356219126,10.005228051397605,3.3311807139915346
4.780631250578807,1.8226072215930658,2.833611811241966,-0.8344642284819973,10.161026506495404,3.852102549493296
4.7988573227947375,1.9242174866580197,2.825267168957146,-0.7959432029870643,10.336200979031528,4.4094298699800305
4.818099497661318,2.027579496448335,2.817307736927275,-0.751848904287264,10.531485794136211,5.004478364558744
4.838375292625801,2.1328943543896974,2.8097892478844027,-0.7018041206416766,10.747429416899982,5.638477793241469
4.859704236169698,2.240368648558697,2.8027712066779857,-0.6454193427092619,10.984343388734647,6.312496257162719
4.882107922655285,2.3502120824460437,2.796317013250893,-0.5822943801376348,11.24224243941773,7.027347596644866
4.905610043479745,2.462634506840221,2.7904940694495166,-0.5120209041711862,11.520775283991371,7.783480434834261
4.930236388548147,2.5778422596801347,2.785373860407805,-0.43418609982284356,11.819146074914542,8.580847938897943
4.956014811144948,2.69603372042928,2.7810319994095765,-0.3483776204338641,12.13602716707595,9.41875827998659
4.982975148349241,2.8173939921000395,2.7775482232052378,-0.25419003763399817,12.469464810628118,10.295707127975742
5.011149088270241,2.942088640206321,2.7750063228288977,-0.15123296635424074,12.816780646486116,11.209195398575822
5.040569974672304,3.070256446671182,2.7734939931653555,-0.039141012368482525,13.174473448580363,12.155537929833741
5.071272539139016,3.2020011811569855,2.7731025830416707,0.08241436692985489,13.53812739849045,13.129671794138774
5.103292550950585,3.3373824551418902,2.773926726710969,0.21371108487124263,13.9023351891617,14.124976446190296
5.1366663755020046,3.4764058070335073,2.7760638375596813,0.3549608493331456,14.260646244613042,15.133121625568645
5.17143043357234,3.619012269479638,2.7796134460530126,0.5062920655888321,14.605552017704543,16.143962459805245
5.207620556267136,3.7650677896566833,2.784676366708901,0.6677316901868846,14.928521289022868,17.14550394393639
5.2452712341637024,3.914353002546912,2.79135368361077,0.8391867296262485,15.22009815782842,18.123958126418863
5.284414764189171,4.066553984125196,2.7997455509070326,1.0204263108904372,15.470073494409291,19.06391603276072
5.325080304030424,4.2212547190692895,2.809949814015937,1.2110654712180444,15.667736603582954,19.948651781166113
5.367292851221117,4.377932085105119,2.822060468728117,1.4105519890297056,15.802207552923596,20.76056793100974
5.411072172072168,4.535954160634355,2.836165988618414,1.618157668339803,15.862842252684986,21.481778826369133
5.456431713678511,4.694582583161205,2.852347565301812,1.8329754566034941,15.839692650793499,22.094813295847366
5.503377539510123,4.85297950966914,2.870677319867847,2.053923589561968,15.723994578427698,22.583401193043315
5.551907334606814,5.010219455453417,2.891216555763467,2.279757601492401,15.50864752753525,22.93329238509207
5.602009529161348,5.16530593072877,2.9140141317783907,2.5090905253433213,15.188645779648862,23.13304487922453
5.653662588468636,5.3171923885252586,2.939105037031824,2.7404209741355667,14.761420371543274,23.174713660130774
5.706834512353889,5.464806592240691,2.9665092467731795,2.9721681107368747,14.227057170047063,23.054375477663996
5.761482578276296,5.607077163941162,2.996230927880548,3.2027118655135145,13.588367534438541,22.772437740064838
5.817553349915708,5.742960839285548,3.0282580465356834,3.430436242914163,12.85080318302926,22.333700435961507
5.874982958308563,5.87146887111584,3.062562408964825,3.653773247273778,12.022223521235468,21.747165517610743
5.933697647019722,5.991691106328195,3.0991001414375625,3.8712449024498854,11.11253900125289,21.025614250255106
5.993614558083004,6.102816496340724,3.1378125904620613,4.081501044952437,10.133265519835602,20.184995399185016
6.0546427230464115,6.20414915153908,3.1786276009115855,4.283350998944287,9.097030759699948,19.243682426847926
6.116684214561802,6.29511945913608,3.2214611109010285,4.475787823212766,8.01707330527714,18.22166436612679
6.179635409153163,6.375290192188851,3.266218989133156,4.658004466874034,6.906770082839607,17.139732825322564
6.243388311075051,6.444357893017247,3.3127990338018964,4.829401795127259,5.779218827250312,16.018718336513405
6.3078318900052235,6.50215008128975,3.361093051753169,4.989588978492393,4.64689186934058,14.87881560065494
6.372853390818121,6.548618999983156,3.410988941538093,5.138377134498943,3.5213674455255495,13.739021948236404
6.438339580817953,6.583832674438412,3.4623727128830826,5.275767353981307,2.413136344401237,12.61669896592654
6.504177907562337,6.607964037882424,3.5151303864228955,5.401934343640572,1.33147577246453,11.527255414634013
6.570257547941161,6.621278795607069,3.5691497298593013,5.517206897786912,0.2843789824177377,10.483941095740256
6.636470335897231,6.624122585431246,3.6243217988371703,5.622046308744315,-0.7214718524622135,9.497736271796285
6.702711561751544,6.616907866906624,3.6805422619246135,5.717023671462277,-1.6807013856837283,8.577319155930498
6.76888064042061,6.600100853049787,3.7377124986392363,5.802796863021582,-2.5892156174327066,7.729094122927249
6.834881648951108,6.574208696875459,3.795740467269452,5.880087804250855,-3.4441631298508053,6.957264883224619
6.900623735919862,6.539767065576951,3.8545413453119606,5.949660453083101,-4.2438887221521,6.263939209622455
6.966021406575631,6.49732817835543,3.9140379498427915,6.012299845179326,-4.987883102854458,5.649254392242429
7.030994688359185,6.447449347326886,3.974160948294585,6.06879238910175,-5.67673063670443,5.111515081159569
7.0954691818324545,6.390682040959842,4.034848872185602,6.119907539913346,-6.312055874651141,4.647337383763895
7.159376002242053,6.32756148221333,4.096047947584736,6.166380913750984,-6.896468664018406,4.251794967973511
7.222651617064186,6.258596795573146,4.157711756722246,6.208898863430719,-7.433506950132861,3.918564520003017
7.285237585019917,6.184261726071817,4.219800745356553,6.2480845086307495,-7.927575835781339,3.640069298887362
7.347080202280636,6.104985967714004,4.28228159044286,6.284485201619623,-8.383880966360946,3.407620814976265
7.408130061957776,6.021147158050395,4.3451264424590565,6.318561409769386,-8.80835378637436,3.211559920616114
7.46834153353828,5.933063620186651,4.408312056556751,6.3506770089755475,-9.20756563176774,3.0413998935812194
7.527672169740146,5.840987963868974,4.471818826646507,6.38109100791136,-9.588626989554859,2.885975430275067
7.586082049378836,5.745101693973425,4.53562973672562,6.409950762214111,-9.959067626534901,2.733602805526913
7.643533066318571,5.645511017708077,4.5997292443477615,6.43728679026938,-10.326692771242394,2.5722576951551748
7.699988176495651,5.542244089995653,4.664102112250455,6.4630093672209314,-10.699410292535626,2.3897781215952643
7.755410617395608,5.435249987070296,4.728732205922665,6.486907148436884,-11.085024074921462,2.1741004218987126
7.809763117266311,5.324399746321082,4.793601277407033,6.508648152655871,-11.490989811761727,1.913535730176337
7.8630071147295215,5.209489848203464,4.858687758933592,6.527783509957635,-11.924131513310249,1.5970928396797717
7.915102013211556,5.090248533070362,4.923965594033168,6.543754438354433,-12.390320427492192,1.2148500801123543
7.96600449854226,4.96634532879544,4.989403138416713,6.5559029391555566,-12.894122978354643,0.7583736955251439
8.015667951830213,4.837404099011894,5.054962167808268,6.563486676110808,-13.438430734909737,0.22117299618730915
8.064041992820332,4.703019791662797,5.120597034569377,6.5656984060726815,-14.024093024438356,-0.4008265368160952
8.11107219073696,4.562778861418414,5.186254018630104,6.5616901407045205,-14.64958087759804,-1.108821340274015
8.156699979351144,4.4162830526424335,5.251870920037149,6.550601927301781,-15.310718332678317,-1.9007185060522767
8.200862809877568,4.26317586931565,5.317376939310167,6.531594742241258,-16.000522073216185,-2.770823055788993
8.243494568570725,4.103170648583488,5.382692886732579,6.503886511683368,-16.70919099648689,-3.7096758777853314
8.28452627505656,3.936078738618619,5.447731751849413,6.466789752905515,-17.424281782408972,-4.704092082963384
8.323887062442747,3.761835920794529,5.512399649378469,6.419748832075881,-18.131093668836012,-5.737438682158605
8.361505421650692,3.580524984106169,5.576597137699228,6.362374445254296,-18.813265500799194,-6.790170516201156
8.397310671491754,3.3923923290981772,5.6402208821517705,6.294472740092284,-19.453562483515253,-7.8406155567576805
8.431234594782735,3.1978567042630246,5.703165609552693,6.216066584524707,-20.034802523900172,-8.865968504697031
8.463213161825365,2.997508679024023,5.76532627539794,6.127406899477737,-20.540847549419496,-9.843420379189801
8.493188248615606,2.792100203529828,5.826600344392717,6.028972695685839,-20.957569038721143,-10.75132770515001
8.521109250650905,2.5825245131426167,5.886890071349575,5.921459418634339,-21.27369342416022,-11.570313485646171
8.546934495782331,2.3697875789010143,5.946104665535919,5.805756283777877,-21.481443894076104,-12.28419663677939
8.57063237157134,2.154973139960253,6.004162228373698,5.682914317410083,-21.576919156606994,-12.880666846760809
8.592182102970943,1.9392039483941832,6.060991371547798,5.554107648942475,-21.560182655722475,-13.351654265632538
8.611574142454884,1.7236021218369584,6.116532448037223,5.42059110628615,-21.435071348263087,-13.693381799323452
8.628810163673254,1.5092514083543276,6.170738359100084,5.283657288292915,-21.208764949309696,-13.90612489612032
8.643902677756797,1.2971637588612306,6.223574931983013,5.144596039331711,-20.891179357773524,-13.993733302958114
8.656874315345409,1.0882519652834954,6.27502089237633,5.00465870630213,-20.49425905247967,-13.962987365726102
8.667756834998244,0.8833093747586988,6.325067479439351,4.865028832644868,-20.031242601325417,-13.822866965948126
8.67658992874583,0.6829969487454446,6.3737177677657995,4.726800162985387,-19.5159652994637,-13.583805634828028
8.683419898233284,0.4878372957508076,6.420985769395653,4.5909621066371065,-18.962246878169786,-13.256988981169826
8.688298271190792,0.2982148269691097,6.466895390462024,4.458392216825408,-18.38339396631992,-12.853739142907926
8.691280419460483,0.1143808873059105,6.511479312630278,4.329854825396329,-17.791829705693964,-12.385009025619555
8.692424228333543,-0.06353740975102914,6.554777860884241,4.206004735140134,-17.19884873652903,-11.860994212097031
8.691788854236032,-0.23552589711631944,6.596837908235642,4.087394793019163,-16.61448567352427,-11.290858086678083
8.68943359526487,-0.40167075385156215,6.637711856165834,3.974486212152382,-16.04747924066312,-10.682557377699146
8.685416887726355,-0.5621455462581934,6.677456718287358,3.8676606383753906,-15.505311856602825,-10.042750703122428
8.679795432263774,-0.7171986648242216,6.7161333246711115,3.7672331313441663,-14.994304785086225,-9.376771104623726
8.672623445615532,-0.8671417126750838,6.753805655984553,3.673465420297929,-14.51975105744835,-8.688644116853384
8.663952028488781,-1.0123392232495672,6.790540310187532,3.586578979129395,-14.086071415970258,-7.981134820978728
8.653828636256286,-1.1531999374092696,6.826406099978826,3.506767630919608,-13.696981882130608,-7.255809899264983
8.642296636882193,-1.2901697562305756,6.861473776288022,3.434209531926958,-13.355664785920604,-6.513103449658078
8.629394939319887,-1.4237264040897817,6.895815871607291,3.3690784974303774,-13.064937937481343,-5.75237792762099
8.61515767527899,-1.554375783464595,6.929506656581594,3.3115547181541674,-12.827418945305645,-4.971973906594519
8.599613917444344,-1.6826499729176514,6.962622203763136,3.261834979088222,-12.645683430355051,-4.1692443683776235
8.582787417715167,-1.809106807221202,6.995240553554018,3.2201425354044457,-12.522417027777788,-3.3405710408477884
8.564696349642954,-1.9343309774989799,7.027441978908062,3.1867368249959678,-12.46056156608735,-2.481362090997763
8.545353039867964,-2.0589365931598533,7.059309347158021,3.16192320408599,-12.463455558541895,-1.5860325856044055
8.524763673936365,-2.1835711487452723,7.090928579198881,3.1460628782299462,-12.534967890957127,-0.6479720713659102
8.502927962448911,-2.3089208276548434,7.12238920798118,3.139583157516287,-12.679620873542756,0.3404917677196303
8.479838754172363,-2.435717036390271,7.153785039556343,3.1429880751934833,-12.902693790019311,1.3881167973635458
8.45548158380846,-2.5647439742904643,7.185214920308278,3.156869243167119,-13.210289243605109,2.5047280352900576
8.429834144065556,-2.6968468667265153,7.216783612739949,3.1819165235200195,-13.60932944660377,3.701105998944158
8.40286567539829,-2.832940161192553,7.248602777975149,3.218927583509461,-14.107423916351426,4.988693969363723
8.374536273786365,-2.974014400356067,7.280792053810244,3.2688145232030985,-14.712506922291695,6.3789749591913685
8.344796129782804,-3.121139469578984,7.313480199042275,3.3326042727950123,-15.432071499960841,7.8822675432344385
8.313584735087014,-3.2754601845785922,7.346806241770225,3.4114269482273567,-16.271710366514142,9.505524514673551
8.280830133241228,-3.438177288243734,7.380920511252499,3.5064821933740924,-17.232490288757546,11.248458164975451
8.24644836035879,-3.6105021911313093,7.4159853331862395,3.618966775023847,-18.30641266308539,13.096929171323563
8.210343338447478,-3.793566317762163,7.452175000936478,3.7499360667370825,-19.46884979125549,15.012024152341436
8.172407675269856,-3.988254815674718,7.489674361603849,3.900056308260497,-20.66648946150533,16.91274685605319
8.132525127113109,-4.1949197102897715,7.528674924686454,4.069183776821029,-21.799344359954453,18.650291100730634
8.09057593001021,-4.412913153889316,7.569366762454664,4.255686687828335,-22.69682149139446,19.973914654956385
8.046446798471317,-4.639881368803261,7.6119236293329475,4.455425834377898,-23.092932569302857,20.49565176809742
8.000047984783285,-4.8708106944962895,7.6564778876767265,4.660382352058873,-22.61777454069416,19.67817977644024
7.951339877838322,-5.096988439903231,7.703081711197315,4.857164149823276,-20.841979967685162,16.89789443448563
7.9003699934392895,-5.305408239580083,7.7516533526955484,5.026143094168132,-17.422878523499136,11.652396524200817
7.847315911043489,-5.479637024815074,7.80191478363723,5.14266705941014,-12.359145208739855,3.9224554895339288
7.792519540795338,-5.603228476902473,7.853341454231331,5.18189161430548,-6.221076515979028,-5.498822722113345
7.736487256026313,-5.665439242062263,7.905160370374386,5.126903387084346,-0.08963440627774011,-15.087105913157979
7.679832863605691,-5.66633558612504,7.956429404245229,4.976032327952766,4.905228736660806,-23.235378363178
7.623169507744441,-5.617283298758432,8.006189727524758,4.743678544320987,8.118348426261676,-29.00921801044084
7.566996674756857,-5.536099814495815,8.053626512967968,4.453586364216578,9.548198488738654,-32.37784196734938
7.511635676611899,-5.440617829608429,8.098162376610134,4.129807944543084,9.600809994182738,-33.88843490989954
7.457229498315815,-5.344609729666601,8.139460456055565,3.790923595444089,8.773792673037708,-34.224188706359875
7.403783401019149,-5.256871802936224,8.177369692010005,3.4486817083804904,7.47485632862833,-33.94810725047669
7.351214682989787,-5.182123239649941,8.21185650909381,3.1092006358757236,5.978202762176272,-33.439248962208865
7.299393450593287,-5.122341212028178,8.242948515452568,2.774808146253635,4.446953455443009,-32.921826491319216
7.248170038473005,-5.077871677473747,8.270696596915105,2.445589881340443,2.9696326641057817,-32.51460080633956
7.197391321698268,-5.04817535083269,8.295152495728509,2.1204438732770474,1.5902744469278194,-32.271844412633435
7.14690956818994,-5.032272606363412,8.316356934461279,1.797725429150713,0.3286136494163106,-32.21074237191631
7.096586842126306,-5.028986469869249,8.334334188752786,1.4756180054315498,-0.8076446945308233,-32.327893541693946
7.046296977427613,-5.037062916814557,8.3490903688071,1.1523390700146103,-1.8157772706662099,-32.60862233708969
6.995926348259468,-5.055220689521219,8.360613759507247,0.8262528466437133,-2.6941552457951037,-33.03196390334061
6.9453741413642565,-5.08216224197917,8.368876287973684,0.49593320761030724,-3.440196809160566,-33.57318496694677
6.894552518944465,-5.116564210070776,8.373835620049787,0.16020135794083956,-4.0493796273326055,-34.20496869037657
6.843386876843757,-5.157058006344102,8.375437633629195,-0.18184832896292613,-4.51487536434138,-34.89792854286181
6.791816296780317,-5.202206759987516,8.373619150339566,-0.5308276143915442,-4.827570010021323,-35.62084213265375
6.739794229180442,-5.25048246008773,8.36831087419565,-0.8870360357180818,-4.976347161715977,-36.340837560834
6.687289404579564,-5.30024593170489,8.35944051383847,-1.2504444113264217,-4.9485716916363645,-37.023672029586876
6.634286945262516,-5.349731648621253,8.346936069725206,-1.6206811316222904,-4.7307397570846925,-37.63418446307167
6.580789628776303,-5.3970390461921,8.330729258408983,-1.9970229762530072,-4.309270560893583,-38.13696317939745
6.526819238314382,-5.440131751801036,8.310759028646453,-2.3783926080469815,-3.6714134674693892,-38.49723698275024
6.472417920796372,-5.476845886475729,8.286975102565984,-2.7633649778744838,-2.8062363196212576,-38.68196958715096
6.417649461931615,-5.504908249671942,8.25934145278724,-3.1501846737459935,-1.705651045353702,-38.66111257213735
6.3626003794348955,-5.5219647601254795,8.22783960604978,-3.536795799467367,-0.3654239277834435,-38.40895247531627
6.307380731833641,-5.525618999403314,8.192471648055108,-3.9208853242205297,1.2138877290896026,-37.90547497314824
6.252124541839608,-5.5134801221124174,8.153262794812902,-4.299940073952012,3.0261325695943726,-37.137664450934196
6.196989740618484,-5.483218796416474,8.110263394073382,-4.6713167184613535,5.058954217509421,-36.10066007232987
6.14215755265432,-5.432629254241379,8.063550226888768,-5.032323319184652,7.2934273116924135,-34.79869742130562
6.087831260111906,-5.359694981124456,8.013226993696922,-5.3803102933977085,9.703991769338248,-33.24577454007377
6.034234310300661,-5.262655063431073,7.959423890762944,-5.712768038798446,12.258733226759913,-31.465989743756317
