th1 (rad),w1 (rad/s),th2 (rad),w2 (rad/s),a1 (rad/s^2),a2 (rad/s^2)
4.247467177823796,2.0790074836465178,3.426940155078967,-1.4534905919040966,7.776341938196565,0.6181876613188718
4.268257252660261,2.1567709030284834,3.412405249159926,-1.4473087152909079,7.702898777293578,1.0844187614390373
4.289824961690546,2.233799890801419,3.397932162007017,-1.4364645276765176,7.642380393440895,1.5691671561870477
4.3121629605985605,2.310223694735828,3.3835675167302517,-1.420772856114647,7.596795497403008,2.07197561302712
4.335265197545919,2.386191649709858,3.3693597881691053,-1.4000530999843759,7.567929227096209,2.5928028540630965
4.359127114043018,2.4618709419808202,3.3553592571692614,-1.374125071443745,7.557332941504076,3.1320363536790063
4.383745823462826,2.537444271395861,3.3416180064548238,-1.342804707906955,7.566322871572785,3.690489003218133
4.409120266176785,2.613107500111589,3.328189959375754,-1.3058998178747736,7.595984876065014,4.26938221556528
4.435251341177901,2.689067348872239,3.3151309611970063,-1.2632059957191208,7.6471824254827006,4.870318008994733
4.4621420146666235,2.765539173127066,3.302498901239815,-1.2145028156291735,7.720565020222173,5.495242256776503
4.489797406397894,2.8427448233292876,3.2903538730835233,-1.1595503930614084,7.816574465821203,6.1464007198532284
4.518224854631187,2.9209105679875,3.2787583691529094,-1.0980863858628762,7.935446711566353,6.826288791225607
4.5474339603110625,3.0002650351031632,3.267777505294281,-1.0298234979506202,8.077207257307261,7.537595153403638
4.577436610662094,3.0810371076762357,3.2574792703147746,-0.9544475464165838,8.24165841433576,8.2831388464576
4.608246981738856,3.1634536918195932,3.2479347948506088,-0.8716161579520078,8.428356955794591,9.065798609208807
4.6398815186570515,3.247737261377539,3.2392186332710886,-0.7809581718599197,8.636580913517898,9.88843282378357
4.672358891270827,3.334103070512718,3.2314090515524896,-0.682073843622084,8.865284489179906,10.753787992880012
4.705699921975954,3.422755915404517,3.2245883131162687,-0.5745359636932839,9.113040277649516,11.66439343972416
4.73992748113,3.513886318181012,3.218842953479336,-0.4578920292960422,9.377968288346404,12.62243987950872
4.77506634431181,3.607666001064476,3.2142640331863754,-0.33166763050095505,9.657651641855946,13.62963971497924
4.811143004322455,3.704242517483036,3.210947356881366,-0.19537123335116266,9.949039363710385,14.687067415823005
4.848185429497285,3.8037329111201394,3.208993644547854,-0.04850055919293261,10.248337444563084,15.794979218548146
4.886222758608486,3.9062162855657703,3.2085086389559248,0.10944923299254886,10.550890329261497,16.952612699678955
4.925284921464144,4.011725188858385,3.20960313128585,0.2789753599893384,10.851056264915131,18.1579685893919
4.965402173352728,4.120235751507536,3.2123928848857437,0.4605550458832574,11.142081481530271,19.407579535795186
5.006604530867803,4.231656566322839,3.216998435344576,0.6546308412412093,11.415979958307382,20.69627337939826
5.048921096531032,4.345816365905913,3.2235447437569884,0.861593575035192,11.663427447134493,22.016941747901914
5.092379260190091,4.4624506403772575,3.2321606795073405,1.0817629925142112,11.873680313798106,23.36032821588858
5.137003766593864,4.581187443515239,3.2429783094324827,1.315366274673097,12.03453137072826,24.71485353998896
5.182815641029016,4.701532757222521,3.2561319721792135,1.5625148100729866,12.132315896369755,26.06649808650807
5.229830968601242,4.822855916186219,3.2717571202799434,1.8231797909380674,12.151981109334017,27.398762914382004
5.278059527763104,4.944375727279559,3.289988918189324,2.0971674200818873,12.07723115311749,28.69273042657703
5.3275032850359,5.065148038810734,3.310960592390143,2.3840947243476576,11.890756919089899,29.927242517779373
5.378154765424007,5.184055608001633,3.3348015396336192,2.683367149525451,11.574555775334666,31.079208457224436
5.429995321504023,5.29980116575498,3.3616352111288736,2.9941592340976957,11.110340775941589,32.12404655012892
5.4829933331615734,5.4109045735143955,3.391576803469851,3.3153996995989847,10.480032870960033,33.03625373862119
5.5371023788967175,5.5157049022239955,3.4247308004658406,3.6457622369851967,9.666324029583997,33.790087217094445
5.5922594279189575,5.612368142519835,3.4611884228356926,3.983663109156141,8.653295204489396,34.36033384757299
5.648383109344156,5.698901094564729,3.501025053927254,4.327266447631871,7.427071733859038,34.723138797319265
5.705372120289804,5.773171811903319,3.544297718403573,4.674497835605064,5.976500562506457,34.85686603512955
5.763103838408837,5.832936817528384,3.5910426967596236,5.02306649595636,4.293838031369363,34.74297057197414
5.82143320658412,5.875875197842078,3.641273361719187,5.370496201676101,2.3754421215579353,34.36687425427496
5.880191958562541,5.899629619057657,3.694978323735948,5.714164944218851,0.22246588222788655,33.718850054320974
5.939188254753118,5.901854277879935,3.7521199731781367,6.051353444762061,-2.1584545039668135,32.79492889687539
5.9982067975319175,5.880269732840267,3.8126335076257574,6.379302733730815,-4.754536551612137,31.597842086956984
6.057009494860321,5.832724367324145,3.8764265349630653,6.6952811546003845,-7.546257381522458,30.137996275439118
6.115336738533562,5.7572617935089205,3.943379346509069,6.996661117354776,-10.50690792816162,28.434444624688897
6.172909356468652,5.652192714227304,4.013345957682617,7.281005563601665,-13.602414315442381,26.515770615903737
6.229431283610925,5.51616857107288,4.086156013318633,7.546163269760703,-16.791578869207193,24.42074947863714
6.284592969321654,5.348252782380808,4.16161764601624,7.790370764547074,-20.026906455583912,22.198612386923717
6.3380754971454625,5.147983717824968,4.239521353661711,8.012356888416312,-23.256160001609736,19.908729608250695
6.389555334323712,4.915422117808871,4.319644922545875,8.211444184498818,-26.424722404033577,17.619567954685913
6.438709555501801,4.651174893768535,4.401759364390863,8.387639864045678,-29.478731698868586,15.406873321768163
6.485221304439486,4.356387576779849,4.485635763031319,8.541708597263359,-32.36881868297702,13.35117347233502
6.528785180207285,4.0326993899500785,4.571052849003953,8.67522033198671,-35.054142378477444,11.534864304558912
6.5691121741067855,3.682157966165304,4.657805052323821,8.790568975032299,-37.50632811081792,10.039295900208515
6.605933753768438,3.3070946850571246,4.745710742074143,8.890961934034385,-39.71290039882484,8.942371778955135
6.63900470061901,2.909965681068876,4.834620361414487,8.980385651823935,-41.679884802052946,8.31718759342731
6.668104357429699,2.4931668330483467,4.924424217932726,9.063557527758208,-43.433418055903964,8.23215941595698
6.693036025760183,2.0588326524893072,5.015059793210308,9.145879121917778,-45.020414828317136,8.752947145526674
6.713624352285076,1.608628504206136,5.106518584429486,9.233408593373044,-46.50853225792691,9.946297574285925
6.729710637327138,1.1435431816268669,5.198852670363216,9.332871569115904,-47.98577671591326,11.885729836523053
6.741146069143406,0.6636854144677342,5.292181386054375,9.451728867481135,-49.56001524144969,14.658714377674876
6.747782923288083,0.16808526205323732,5.386698674729187,9.598316011257884,-51.35821732973827,18.374453499107037
6.749463775908616,-0.34549691124414533,5.482681834841766,9.782060546248955,-53.52407302252492,23.17000726962115
6.7460088067961745,-0.8807376414693946,5.580502440304255,10.013760618945167,-56.20974852083569,29.208952440454055
6.7372014303814804,-1.4428351266777515,5.680640046493707,10.305850143349707,-59.55058425421248,36.657680342949504
6.722773079114703,-2.038340969219876,5.783698547927204,10.672426946779202,-63.59495737022427,45.60201332953895
6.702389669422504,-2.674290542922119,5.890422817394996,11.128447080074592,-68.12378878685611,55.81464728110604
6.675646763993283,-3.35552843079068,6.0017072881957425,11.686593552885652,-72.2200072143685,66.17944368387714
6.6420914796853765,-4.077728502934365,6.118573223724599,12.348387989724424,-73.36846053529858,73.46060237675762
6.601314194656033,-4.811413108287351,6.2420571036218435,13.082994013492,-66.13085674230709,70.45083495077476
6.5532000635731595,-5.472721675710422,6.372887043756764,13.787502362999748,-42.3770282976252,46.183377920606006
6.498472846816055,-5.896491958686674,6.510762067386762,14.249336142205808,0.9460462646137243,-3.5842940882535834
6.439507927229188,-5.887031496040537,6.65325542880882,14.213493201323272,48.2782268598272,-58.07562095069411
6.380637612268783,-5.404249227442265,6.7953903608220525,13.632736991816332,75.83686754335397,-85.97901825742615
6.32659511999436,-4.645880552008725,6.931717730740216,12.77294680924207,80.78305686461147,-84.63642512878648
6.280136314474273,-3.8380499833626103,7.059447198832636,11.926582557954205,75.15575317688261,-70.68422850093158
6.241755814640647,-3.0864924515937844,7.178713024412178,11.21974027294489,67.49690673891376,-55.29983961739746
6.210890890124709,-2.4115233842046466,7.290910427141627,10.666741876770915,60.79680312744875,-42.07031428130452
6.186775656282663,-1.8035553529301591,7.397577845909336,10.246038733957871,55.60504673643949,-31.429126820796043
6.168740102753361,-1.2475048855657642,7.500038233248915,9.931747465749911,51.75702268371522,-22.98192894164549
6.1562650538977035,-0.729934658728612,7.5993557079064145,9.701928176333457,48.95555921478177,-16.247413205402623
6.148965707310418,-0.24037906658079422,7.696374989669749,9.539454044279431,46.926227443329,-10.833668474025991
6.14656191664461,0.22888320785249577,7.791769530112544,9.43111735953917,45.444734035942,-6.45480265555129
6.148850748723135,0.6833305482119157,7.886080703707935,9.366569332983657,44.331539033156524,-2.9111972247947473
6.155684054205254,1.126645938543481,7.979746397037772,9.337457360735709,43.44116801746631,-0.06651007460600818
6.166950513590689,1.5610576187181442,8.07312097064513,9.336792259989648,42.65331127895989,2.1713970236949716
6.18256108977787,1.9875907315077432,8.166488893245026,9.358506230226599,41.86697263880106,3.865226932306331
6.202436997092947,2.406260457895754,8.260073955547291,9.397158499549661,40.99738680140414,5.059700530952225
6.226499601671905,2.8162343259097953,8.354045540542788,9.447755504859183,39.97507550646705,5.7906125362544
6.254661944931002,3.2159850809744657,8.44852309559138,9.505661630221727,38.746350737599876,6.09203215098418
6.286821795740747,3.6034485883504646,8.543579711893598,9.56658195173157,37.27455742981459,6.001830902309082
6.322856281624252,3.9761941626486106,8.639245531410914,9.62660026075466,35.54134733358605,5.565470780702557
6.362618223250738,4.331607635984471,8.73551153401846,9.682254968561686,33.54732151928147,4.837883809586926
6.405934299610583,4.667080851177286,8.832334083704078,9.730633806657556,31.311509432668476,3.8833298131301546
6.452605108122356,4.980195945503971,8.929640421770653,9.769467104788857,28.86938210796308,2.7733119605703753
6.502407067577395,5.268889766583602,9.027335092818541,9.797200224394562,26.269401741711093,1.5829016255186121
6.555095965243231,5.531583784000713,9.125307095062487,9.813029240649747,23.568426879033808,0.3860872694468391
6.610411803083238,5.767268052791051,9.223437387468984,9.816890113344217,20.826540991620373,-0.7490756801259384
6.668084483611149,5.975533462707255,9.321606288602426,9.809399356542958,18.101984280147605,-1.7647374947804533
6.7278398182382215,6.156553305508731,9.419700282167856,9.791751981595153,15.446817861573985,-2.6163421558674704
6.789405351293309,6.3110214841244705,9.517617801983807,9.765588560036479,12.903762320997608,-3.2742096497179674
6.852515566134553,6.440059107334447,9.615273687584171,9.7328464635393,10.504394927959012,-3.723608122837731
6.916916157207897,6.545103056614037,9.712602152219564,9.695610382310923,8.268639038034554,-3.9635737049068576
6.982367187774037,6.627789446994383,9.809558256042672,9.655974645261853,6.205295420367486,-4.004890129271404
7.048645082243981,6.6898424011980575,9.90611800249529,9.61592574396914,4.313275337388881,-3.8676758983266026
7.115543506255961,6.732975154571946,10.002277259934981,9.577248984985873,2.5831934101727407,-3.57896776497701
7.182873257801681,6.758807088673674,10.09804974978484,9.541459307336103,0.9990383253662918,-3.17057660320036
7.250461328688418,6.7687974719273365,10.193464342858201,9.5097535413041,-0.46027072849777956,-2.6773651611853992
7.318149303407692,6.764194764642359,10.288561878271242,9.482979889692245,-1.8195410435170698,-2.135984732045805
7.3857912510541155,6.745999354207188,10.383391677168165,9.461620042371788,-3.1061963890579403,-1.5840228829368876
7.453251244596188,6.714937390316609,10.478007877591882,9.44577981354242,-4.349360251031864,-1.0594587870100454
7.5204006184993535,6.67144378780629,10.572465675727306,9.435185225672319,-5.579053471275023,-0.6002914705781385
7.587115056377416,6.61565325309354,10.66681752798403,9.429182310966537,-6.825405780602679,-0.24419258958954435
7.653271588908352,6.547399195287513,10.761109351093696,9.42674038507064,-8.117773555033548,-0.02803384452254691
7.718745580861227,6.466221459737177,10.855376754944402,9.426460046625415,-9.483662390922206,0.012852149244419941
7.783407795458599,6.371384835827955,10.949641355410655,9.42658856811786,-10.947374276353049,-0.15420217906700875
7.8471216438168785,6.261911093064425,11.043907241091834,9.42504654632719,-12.528338887134362,-0.5576047939871551
7.9097407547475225,6.1366277041930815,11.138157706555106,9.419470498387318,-14.239151110854918,-1.219422408941427
7.971107031789454,5.994236193084532,11.23235241153898,9.407276274297903,-16.083424271811726,-2.1528870486831506
8.031049393720298,5.833401950366415,11.326425174281958,9.385747403811072,-18.053676292923083,-3.359689823428273
8.089383413223963,5.652865187437184,11.420282648320068,9.35215050557679,-20.12957898901216,-4.827402125100867
8.145912065098335,5.451569397547063,11.513804153375837,9.30387648432578,-22.27699011535165,-6.527494328982676
8.200427759073806,5.228799496393546,11.606842918219094,9.238601541035953,-24.44821357873214,-8.414495796678386
8.252715754037741,4.984317360606225,11.699228933629454,9.15445658306917,-26.583853876182054,-10.426805896960547
8.302558927643803,4.718478821844404,11.790773499460146,9.050188524099564,-28.6164218032583,-12.489484979482526
8.349743715862248,4.432314603811821,11.88127538470114,8.925293674304738,-30.475523447963184,-14.519025856349534
8.394066861900367,4.1275593693321895,11.970528321444188,8.780103415741243,-32.09408832085617,-16.42968649003661
8.43534245559369,3.806618486123628,12.0583293556016,8.615806550840876,-33.414772846402336,-18.14056376147068
8.473408640454926,3.4724707576596043,12.144487421110009,8.434400913226169,-34.395528037131385,-19.5823385822583
8.50813334803152,3.1285154772882904,12.22883143024227,8.238577527403585,-35.01341842261661,-20.70262398668595
8.539418502804404,2.7783812930621243,12.311217205516305,8.031551287536725,-35.26611425628056,-21.469118292921383
8.567202315735026,2.425720150499319,12.391532718391673,7.816860104607511,-35.17095480745295,-21.870226427438276
8.591459517240018,2.0740106024247895,12.469701319437748,7.598157840333128,-34.76195213364124,-21.91332009170823
8.612199623264265,1.7263910810883771,12.545682897841079,7.379024639416046,-34.08543868241776,-21.621213533402614
8.62946353407515,1.3855366942641996,12.61947314423524,7.162812504082019,-33.19518731435285,-21.02764181296882
8.64331890101779,1.053584821120671,12.69110126927606,6.952536085952331,-32.14775645167825,-20.17252750048187
8.653854749228998,0.7321072566038886,12.760626630135585,6.750810810947512,-30.998602478646813,-19.09766130659197
8.661175821795037,0.4221212318174205,12.82813473824506,6.559834197881592,-29.79924333463581,-17.843184924668513
8.665397034113212,0.1241287984710624,12.893733080223877,6.381402348634907,-28.595524650028636,-16.44502771591344
8.666638322097922,-0.16182644802922397,12.957547103710226,6.216952071475773,-27.42687435613537,-14.93326308327218
8.66502005761763,-0.4360951915905777,13.019716624424984,6.0676194406430515,-26.326343149938236,-13.33123440916735
8.660659105701724,-0.69935862308996,13.080392818831415,5.934307096551378,-25.321204450206192,-11.655249547024441
8.653665519470824,-0.9525706675920219,13.13973588979693,5.817754601081133,-24.433907048311735,-9.914640213454541
8.644139812794904,-1.1969097380751392,13.19791343580774,5.718608198946588,-23.683214925282805,-8.11200914085463
8.632170715414153,-1.4337418873279673,13.255099517797206,5.637488107538042,-23.085414672018377,-6.243528221658274
8.617833296540873,-1.664596034048151,13.311474398872585,5.5750528253214595,-22.655510044087226,-4.299196201944363
8.601187336200391,-1.8911511344890233,13.3672249271258,5.532060863302016,-22.408347628244154,-2.2630129966139547
8.5822758248555,-2.115234610771465,13.42254553575882,5.5094307333358765,-22.35962033849144,-0.1130854246923605
8.561123478747787,-2.3388308141563794,13.477639843092179,5.508299879088953,-22.526665888232866,2.1782377709240577
8.537735170606222,-2.564097473038708,13.532722841883068,5.5300822567981935,-22.928895068400493,4.643963110023398
8.512094195875836,-2.793386423722713,13.58802366445105,5.576521887898427,-23.587509082431623,7.321284013822337
8.48416033163861,-3.029261514547029,13.643788883330034,5.649734728036651,-24.52381828446972,10.248657758851222
8.45386771649314,-3.274499697391726,13.7002862306104,5.752221305625163,-25.7548128624795,13.459209715889896
8.421122719519222,-3.5320478260165213,13.757808443666653,5.886813402784062,-27.283415674307985,16.966833728045593
8.385802241259057,-3.804881982759601,13.816676577694492,6.056481740064518,-29.07872544533756,20.738370321075003
8.347753421431461,-4.095669237212977,13.877241395095137,6.263865443275268,-31.038313046255187,24.64065518623247
8.306796729059332,-4.406052367675529,13.93988004952789,6.510271995137593,-32.92123841904205,28.346372869096253
8.262736205382577,-4.73526475186595,14.004982769479266,6.793735723828556,-34.24269679175485,31.185592522076202
8.215383557863918,-5.077691719783498,14.072920126717552,7.105591649049318,-34.148393847981694,31.967670737080503
8.164606640666083,-5.419175658263315,14.143976043208045,7.425268356420123,-31.38012277869442,28.9288728147303
8.11041488408345,-5.73297688605026,14.218228726772246,7.714557084567426,-24.62177255142274,20.21073751479012
8.053085115222947,-5.979194611564487,14.29537429761792,7.916664459715327,-13.543460693666093,5.316186244668974
7.993293169107302,-6.114629218501148,14.374540942215074,7.9698263221620165,-0.06828835332101156,-13.11779007409641
7.932146876922291,-6.115312102034358,14.454239205436695,7.838648421421053,11.974855300457719,-29.795895756681542
7.870993755901947,-5.995563549029781,14.532625689650905,7.540689463854237,19.496017146976772,-40.4416341611794
7.811038120411649,-5.800603377560014,14.608032584289447,7.136273122242443,22.11411989924662,-44.529675518818856
7.753032086636049,-5.579462178567548,14.67939531551187,6.690976367054255,21.333206842402504,-44.13518702440218
7.697237464850374,-5.366130110143523,14.746305079182413,6.249624496810233,18.84102465031291,-41.57761804352325
7.643576163748938,-5.177719863640394,14.808801324150515,5.833848316375001,15.750353221332118,-38.37943943557911
7.591798965112535,-5.020216331427072,14.867139807314265,5.45005392201921,12.62288198587845,-35.30593381903191
7.5415968017982635,-4.893987511568287,14.921640346534458,5.096994583828891,9.687024514537924,-32.66832110823082
7.492656926682581,-4.797117266422908,14.972610292372748,4.7703113727465825,7.006087413183806,-30.555453697655928
7.4446857540183515,-4.72705639229107,15.020313406100213,4.464756835770023,4.57177329452548,-28.96146469950225
7.397415190095441,-4.6813386593458155,15.064960974457913,4.175142188775001,2.3494730371042998,-27.846751833632784
7.350601803501983,-4.657843928974772,15.106712396345662,3.8966746704386734,0.29851035369740364,-27.164463368580915
7.304023364212235,-4.654858825437798,15.14567914305005,3.6250300367528645,-1.6194339200333978,-26.870680812505384
7.257474775957857,-4.671053164638132,15.181929443417578,3.3563232286278106,-3.437134496216756,-26.927255945327378
