th1 (rad),w1 (rad/s),th2 (rad),w2 (rad/s)
5.8818271435109395,0.46626493088393517,1.7174286352810715,-2.343399004554365
5.886489792819779,0.5079006743947658,1.693994645235528,-2.4205119354400897
5.891568799563727,0.5519048291729816,1.669789525881127,-2.498147215360917
5.897087847855457,0.5983851268888721,1.6448080537275178,-2.57645429429381
5.903071699124346,0.6474552205360293,1.6190435107845798,-2.6556049064798852
5.909546251329706,0.6992362836338437,1.5924874617197808,-2.735795263499035
5.916538614166044,0.7538589346954784,1.5651295090847905,-2.8172485186551808
5.924077203512999,0.811465526411277,1.5369570238982386,-2.900217576348979
5.932191858777112,0.87221284579585,1.507954848134749,-2.9849883357127216
5.940913987235071,0.9362752802347565,1.4781049647776217,-3.071883475568104
5.950276740037419,1.0038485150808503,1.4473861300219406,-3.161266907992554
5.960315225188227,1.0751538411469597,1.4157734609420152,-3.2535490505586866
5.971066763599697,1.15044316472869,1.3832379704364284,-3.3491930924108013
5.982571195246984,1.2300048276284892,1.3497460395123204,-3.4487224557895964
5.994871243523269,1.3141703578122905,1.3152588149544244,-3.5527296799883
6.008012947101392,1.4033222784362709,1.2797315181545414,-3.6618869738638127
6.022046169885755,1.497903095790865,1.2431126484159034,-3.7769586857402415
6.037025200843663,1.5984255500505318,1.205343061558501,-3.8988159064530428
6.053009456344169,1.705484119015739,1.1663549024939706,-4.02845331638013
6.070064297534326,1.8197675645080607,1.1260703693301692,-4.167008144525868
6.088261973179407,1.9420719141817293,1.0844002878849106,-4.315780606753958
6.107682692321225,2.073312517515129,1.0412424818173711,-4.4762542130524725
6.128415817496376,2.2145324159374917,0.9964799396868463,-4.650112486798514
6.150561141655751,2.366901711305277,0.9499788148188612,-4.83924521712368
6.174230158768804,2.531698003510819,0.9015863626476244,-5.045731120350444
6.199547138803912,2.710249751071986,0.8511290514441199,-5.271772562438465
6.226649636314632,2.9038100654352563,0.7984113258197352,-5.519538249075046
6.2556877369689845,3.113304292095331,0.7432159433289847,-5.790836293296445
6.286820779889938,3.3388567821429427,0.6853075803960202,-6.0864870490897856
6.320209347711367,3.578951176005245,0.6244427099051224,-6.405192966599341
6.35599885947142,3.829036473757381,0.560390780239129,-6.741641415683796
6.394289224208993,4.079445811883207,0.49297436608229106,-7.083646655876673
6.435083682327825,4.312876515772156,0.4221378995235243,-7.408658583986546
6.4782124474855465,4.502766112909202,0.3480513136836588,-7.681465648357456
6.5232401086146385,4.615676461765016,0.2712366572000843,-7.857385685949254
6.5693968732322885,4.621201559449919,0.19266280034059174,-7.89580661267589
6.615608888826788,4.507443556705747,0.11370473421383284,-7.7813616963064804
6.660683324393846,4.2901526204769045,0.03589111725076803,-7.536282755980071
6.703584850598615,4.004875136059683,-0.03947171030903268,-7.209347461298939
6.743633601959211,3.689141216020692,-0.11156518492202207,-6.851361583049318
6.780525014119418,3.3702659706053084,-0.18007880075251526,-6.498663296387497
6.814227673825472,3.063438021935723,-0.24506543371639022,-6.170838076366141
6.844862054044829,2.7750574362360503,-0.30677381448005164,-5.875519687235332
6.87261262840719,2.5065251661669157,-0.36552901135240495,-5.613667115967528
6.8976778800688585,2.25684338904139,-0.42166568251208025,-5.383125680098628
6.9202463139592725,2.024070812957544,-0.4754969393130665,-5.180585812343367
6.940487022088848,1.806046524041526,-0.5273027974365002,-5.002534149796318
6.958547487329263,1.6007153194524935,-0.5773281389344634,-4.8456636387425815
6.974554640523788,1.4062535034798327,-0.6257847753218893,-4.707017660840934
6.988617175558587,1.2211008301260995,-0.6728549519302987,-4.58401240467581
7.000828183859848,1.0439514548841844,-0.7186950759770567,-4.474408610861131
7.011267698408689,0.8737292803409472,-0.7634391620856681,-4.37626623780769
7.020004991212098,0.709559367034117,-0.807201824463745,-4.2878970802638605
7.027100584882439,0.5507404115161763,-0.8500807952663836,-4.207821508901684
7.032607988997601,0.39672012924116784,-0.8921590103554005,-4.134731380879396
7.036575190290012,0.24707393318416607,-0.9335063241641944,-4.067459343973742
7.039045929621854,0.10148668344433578,-0.9741809176039319,-4.004954015374674
7.040060796456297,-0.04026293743639084,-1.0142304577576786,-3.946260275038064
7.039658167081933,-0.17831590707150488,-1.0536930605080592,-3.8905038909755407
7.037875008011218,-0.312744646788663,-1.0925980994178146,-3.8368797567929835
7.034747561543331,-0.4435634789545421,-1.1309668969857445,-3.784643109173494
7.030311926753786,-0.5707380539877147,-1.1688133280774795,-3.7331031787987308
7.024604546213909,-0.6941939697855769,-1.2061443598654669,-3.6816188030692705
7.017662606516053,-0.8138247411531137,-1.2429605478961596,-3.629595591301406
7.009524359104522,-0.9294992214028543,-1.2792565038091737,-3.5764842845439277
7.000229366890493,-1.0410685330783955,-1.315021346654613,-3.521779995618111
6.989818681559709,-1.148372529701785,-1.3502391466107941,-3.4650220533521106
6.978334956262691,-1.2512457852418952,-1.3848893671443152,-3.4057942107147454
6.9658224984102715,-1.349523092096694,-1.4189473092514626,-3.343725011409779
6.952327267489305,-1.4430444409689303,-1.4523845593655604,-3.2784881444430938
6.937896823079615,-1.5316594559991838,-1.4851694408099914,-3.2098026514344657
6.922580228519624,-1.6152312645295979,-1.517267467324336,-3.137432886567608
6.906427915874327,-1.6936397913030237,-1.548641796190012,-3.0611881631140627
6.889491517961297,-1.766784480016125,-1.5792536778211528,-2.9809220521881925
6.871823673161137,-1.8345864591891226,-1.6090628983430346,-2.8965313274703646
6.853477808569245,-1.89699018266198,-1.6380282116177383,-2.807954572877664
6.834507906742625,-1.9539645863039745,-1.6661077573465148,-2.7151704876714113
6.814968260879586,-2.00550381071566,-1.6932594622232289,-2.6181959347988375
6.794913222772429,-2.0516275442159357,-1.7194414215712173,-2.5170837833904955
6.77439694733027,-2.0923810410886254,-1.7446122594051223,-2.4119205957789727
6.753473136919383,-2.1278348671707086,-1.768731465362912,-2.3028242040978717
6.732194788247676,-2.158084419001353,-1.7917597074038907,-2.1899412127139435
6.710613944057663,-2.1832492547710998,-1.81365911953103,-2.073444451879542
6.688781451509952,-2.203472266209486,-1.8343935640498255,-1.9535303965526947
6.666746728847857,-2.2189187113530053,-1.8539288680153525,-1.830416553711719
6.6445575417343266,-2.2297751197979516,-1.8722330335524697,-1.7043388128735355
6.622259790536347,-2.2362480753619662,-1.889276421681205,-1.5755487487911997
6.599897309782728,-2.238562876632581,-1.905031909169117,-1.4443108629787438
6.577511681016402,-2.2369620739927822,-1.9194750177989044,-1.3108997519295529
6.555142060276474,-2.231703882436212,-1.9325840153182,-1.1755971944257906
6.532825021452111,-2.2230604726155345,-1.9443399872624578,-1.0386891576185489
6.510594416725956,-2.2113161476815915,-1.9547268788386434,-0.9004627307674249
6.48848125524914,-2.196765419971894,-1.9637315061463176,-0.7612030056666006
6.466513601049421,-2.1797110087909717,-1.9713435362029836,-0.6211899327813953
6.444716490961511,-2.1604617876518226,-1.9775554355307976,-0.4806951909341011
6.423111873084993,-2.1393307157113624,-1.9823623874401386,-0.33997911509743717
6.4017185659278795,-2.1166327931269193,-1.985762178591113,-0.19928773077381035
6.380552237996611,-2.092683083230581,-1.987755055898851,-0.058849944121071085
6.359625407164305,-2.0677948454952655,-1.9883435553400617,0.08112506571148737
6.338947458709352,-2.0422778221833755,-1.9875323046829467,0.22045021149861452
6.318524680487519,-2.016436718452885,-1.9853278025679606,0.35896258831003913
6.29836031330299,-1.9905699108426087,-1.9817381766848603,0.4965252684839021
6.2784546141945645,-1.9649684128925191,-1.9767729240000214,0.6330287927467162
6.258804930065639,-1.9399151196789772,-1.9704426360725542,0.768392362076769
6.239405778868849,-1.91568434578704,-1.9627587124517865,0.9025647478444656
6.220248935410979,-1.8925416642063944,-1.9537330649733418,1.0355249499021275
6.201323518768914,-1.870744047260844,-1.9433778154743204,1.1672826430938759
6.182616078296306,-1.8505403053011573,-1.9317049890433817,1.2978784617330732
6.164110675243294,-1.832171814724505,-1.918726204426051,1.4273841787350832
6.145788957096049,-1.815873524015471,-1.9044523626387,1.5559028412267542
6.1276302218558945,-1.8018752248806496,-1.8888933342264325,1.6835689276164232
6.109611469607088,-1.7904030749756104,-1.8720576449502682,1.8105485923822549
6.091707438857331,-1.7816813588507388,-1.8539521590264456,1.9370400642768049
6.073890625268824,-1.7759344740435163,-1.8345817583836777,2.063274261180122
6.056131280528389,-1.7733891289606827,-1.8139490157718765,2.1895156801364926
6.038397389238781,-1.7742767372400021,-1.7920538589705115,2.3160636134247223
6.020654621866381,-1.7788359880868987,-1.7688932228362644,2.4432537293983163
6.002866261985512,-1.7873155613256821,-1.7444606855422813,2.5714600377867916
5.984993106372255,-1.7999769361007274,-1.7187460851644134,2.7010972290254505
5.966993337011248,-1.8170972079966863,-1.691735112874159,2.8326233292859015
5.948822364931281,-1.8389717726526704,-1.6634088795812998,2.96654253657002
5.9304326472047535,-1.865916642111444,-1.6337434542155995,3.103407981721836
5.911773480783639,-1.8982700136647046,-1.6027093743983811,3.2438239651937337
5.892790780646992,-1.9363924797210754,-1.5702711347464438,3.388446914870408
5.8734268558497815,-1.980664905050102,-1.5363866655977396,3.5379838288183536
5.85362020679928,-2.0314824346627804,-1.501006827309556,3.693186212765929
5.833305382452652,-2.0892422278389806,-1.4640749651818967,3.854836351023421
5.812412960174262,-2.154321193498887,-1.4255266016716626,4.023720953850525
5.790869748239273,-2.2270380331905058,-1.3852893921331573,4.20058452576267
5.768599367907368,-2.3075910584222927,-1.3432835468755306,4.3860508764314226
5.745523457323145,-2.3959593886005353,-1.2994230381112164,4.58049581368718
5.721563863437139,-2.4917504598985394,-1.2536180799743446,4.783847453938395
5.696646358838154,-2.5939725365419375,-1.2057796054349605,4.995284417650816
5.670706633472735,-2.7007108687974704,-1.1558267612584523,5.212801538594029
5.64369952478476,-2.808699068251348,-1.103698745872512,5.432629647884997
5.6156125341022465,-2.912819855148892,-1.049372449393662,5.648553541268081
5.586484335550757,-3.005664736662752,-0.9928869139809813,5.851302611088922
5.5564276881841295,-3.0774408515650435,-0.934373887870092,6.028406782450383
5.525653279668479,-3.116676112054896,-0.8740898200455882,6.165135366036332
5.49448651854793,-3.112133893825523,-0.8124384663852249,6.247082444586651
5.463365179609675,-3.055802871597844,-0.7499676419393584,6.264211057465448
5.432807150893697,-2.9458039265729234,-0.6873255313647039,6.2147611704667725
5.403349111627968,-2.7874334910518277,-0.6251779196600361,6.106582880660988
5.375474776717449,-2.591448635158592,-0.5641120908534262,5.954699085196514
5.349560290365863,-2.370624350883461,-0.504565100001461,5.7765561849541855
5.325854046857029,-2.1365897880239566,-0.4467995381519192,5.587731462626889
5.304488148976789,-1.898171225807559,-0.3909222235256503,5.399752322108202
5.2855064367187135,-1.6611762069839653,-0.3369247003045683,5.2198933408323445
5.268894674648874,-1.4289487254756625,-0.28472576689624485,5.0520048867622
5.254605187394118,-1.2031130755658526,-0.23420571802862283,4.897569911185755
5.2425740566384595,-0.9842160482200271,-0.18523001891676527,4.756598138042463
5.23273189615626,-0.7721899339611111,-0.13766403753634066,4.628260787548895
5.225009996816649,-0.5666545966933829,-0.0913814296608517,4.51129815461781
5.219343450849715,-0.36710206008462076,-0.04626844811467361,4.40426409486423
5.215672430248869,-0.1730035211716951,-0.00222580716603131,4.305664557730992
5.213942395037152,0.016132010424247584,0.04083083841127861,4.2140313576729875
5.214103715141394,0.200728169580268,0.08297115198800849,4.127958102393923
5.216110996837196,0.3811287518884965,0.12425073301194772,4.046114943768287
5.219922284356081,0.5575950278387451,0.1647118824496306,3.967252124003444
5.225498234634469,0.7303085816721788,0.20438440368966504,3.890198132718798
5.232801320451191,0.8993772132566169,0.243286385016853,3.8138557795543
5.241795092583757,1.0648425160193178,0.281424942812396,3.7371979937933726
5.25244351774395,1.2266883687229924,0.3187969227503297,3.659264282194922
5.26471040143118,1.3848499328035906,0.35538956557227896,3.579158259040245
5.278558900759216,1.5392229393399337,0.3911811481626814,3.496046358299323
5.293951130152616,1.6896731464676478,0.4261416117456746,3.4091576582042333
5.310847861617292,1.8360458890074,0.4602331883277169,3.3177846417765005
5.329208320507366,1.9781756514672826,0.4934110347454819,3.221284653389897
5.348990077022039,2.115895588345027,0.5256238812793809,3.119081774636089
5.3701490329054895,2.249046901213902,0.5568146990257418,3.0106688235435857
5.392639501917628,2.3774879665037436,0.5869213872611776,2.895609174862866
5.4164143815826655,2.5011030951865747,0.6158774790098063,2.773538103348417
5.441425412534532,2.619810798389481,0.6436128600432904,2.6441633656395735
5.467623520518426,2.7335714329784624,0.6700544936996862,2.5072647588748516
5.494959234848211,2.8423941093485894,0.6951271412884347,2.362692425056714
5.523383175941697,2.9463427603678043,0.7187540655390018,2.2103637087242034
5.552846603545375,3.0455412954467884,0.7408577026262438,2.0502584206750356
5.583302016499843,3.140177796298336,0.7613602868329942,1.88241241090877
5.614703794462827,3.230507749811578,0.7801844109420819,1.7069094078784968
5.647008871960942,3.316856356726567,0.7972535050208669,1.5238711365324575
5.680177435528208,3.3996199999483117,0.8124922163861915,1.3334457824835177
5.714173635527691,3.479267000151771,0.8258266742110267,1.1357949223501316
5.748966305529208,3.5563378246546598,0.837184623434528,0.9310790903041435
5.784529683775755,3.631444942968778,0.8464954143375695,0.7194421996094384
5.820844133205443,3.7052725316629096,0.8536898363336639,0.5009950904272054
5.857896858522072,3.778576211732861,0.8586997872379359,0.27579854215091304
5.895682620639401,3.852182937830948,0.8614577726594451,0.043846190034868476
5.9342044500177105,3.926991025635866,0.8618962345597938,-0.19495204325083704
5.973474360274069,4.003970061012458,0.8599467141272854,-0.4407850915408389
6.0135140608841935,4.0841600158384095,0.855538863211877,-0.6939530305406634
6.054355661042577,4.168668190075991,0.8485993329064704,-0.9548741607049925
6.0960423429433375,4.25866142578721,0.8390505912994205,-1.2240829875750598
6.13862895720121,4.355349100566059,0.8268097614236699,-1.5022125781284306
6.18218244820687,4.459949238586865,0.8117876356423857,-1.7899504293367434
6.226781940592739,4.573624979934257,0.7938881313490183,-2.087949948855561
6.2725181903920815,4.69737069232729,0.7730086318604626,-2.396668627772707
6.319491897315355,4.8318152715869065,0.7490419455827356,-2.7160877225003355
6.367810050031224,4.976894744191139,0.7218810683577322,-3.0452469446697576
6.417578997473135,5.13133120785784,0.6914285989110347,-3.381507088649916
6.4688923095517135,5.291855595187315,0.6576135280245355,-3.7194551962503315
6.5218108655035865,5.452167543135316,0.6204189760620322,-4.04944694187839
6.576332540934939,5.6018152492548,0.5799245066432483,-4.356049771861048
6.632350693427488,5.725593070482396,0.5363640089246379,-4.6172359438113775
6.6896066241323116,5.80462635257716,0.4901916494865241,-4.805978274901249
6.7476528876580835,5.820427823135759,0.4421318667375116,-4.896054556166169
6.805857165889441,5.761662124748909,0.3931713211758499,-4.871668386271884
6.863473787136931,5.63008545903488,0.3444546373131311,-4.7358692930945585
6.91977464172728,5.440722402132285,0.2970959443821855,-4.5107775386545494
6.974181865748602,5.215526522873664,0.25198816899564,-4.228548368692443
7.026337130977339,4.975449293932369,0.2097026853087156,-3.9200523789250346
7.076091623916663,4.735828075736453,0.17050216151946526,-3.6082439022538817
7.123449904674028,4.505765416487486,0.13441972249692644,-3.307197716679722
7.168507558838903,4.28957029769891,0.10134774533012922,-3.02409903083875
7.211403261815892,4.08852478541572,0.07110675502174171,-2.761726021145213
7.252288509670049,3.9022465376478737,0.04348949481028958,-2.520380759014842
7.291310975046528,3.7295558197847196,0.01828568722014116,-2.2991283763573698
7.3286065332443755,3.5689698205699196,-0.004705596543432538,-2.096511338846119
7.364296231450075,3.418962409865078,-0.02567070993189373,-1.910930884647162
7.398485855548725,3.278089206136598,-0.04478001877836535,-1.7408356545368502
7.431266747610091,3.1450396919070447,-0.06218837532373385,-1.584804659934255
7.462717144529162,3.018651736883616,-0.0780364219230764,-1.4415748673655058
7.492903661897998,2.897907898752224,-0.09245217059673146,-1.310041199203888
7.52188274088552,2.7819237709601117,-0.10555258258877034,-1.1892438808635557
7.549701978595121,2.6699336427223574,-0.1174450213974059,-1.0783509382906271
7.576401315022345,2.5612760462230746,-0.12822853078031216,-0.9766397830228246
7.6020140754845755,2.4553803480363343,-0.1379949286105404,-0.8834797575690115
7.626567878964939,2.3517548126027017,-0.14682972618623052,-0.7983164311064028
7.650085427090966,2.2499762049272984,-0.15481289049729455,-0.7206578823430605
7.672585189140239,2.1496808336700766,-0.16201946932072514,-0.6500629361645919
7.69408199747694,2.050556870720023,-0.16852009868237106,-0.5861311995763114
7.71458756618414,1.9523377689148729,-0.17438141067813417,-0.528494698247732
7.734110943873289,1.8547966090606804,-0.17966635766061148,-0.4768109089529773
7.752658909963896,1.7577412268130779,-0.18443446675014125,-0.43075699486989805
7.7702363222320265,1.661009992147642,-0.18874203669884024,-0.39002506940997733
7.786846422153503,1.5644681355850607,-0.19264228739294,-0.35431833467631324
7.802491103509354,1.4680045345089336,-0.19618547073970313,-0.3233479602983256
7.8171711488544435,1.3715288892938373,-0.1994189503426864,-0.29683058625865916
7.830886437747382,1.2749692325311295,-0.20238725620527298,-0.274486349142006
7.843636130072693,1.1782697256209735,-0.20513211969669304,-0.25603734507590975
7.8554188273289025,1.0813887057085465,-0.20769249314745214,-0.2412064547169874
7.866232714385988,0.9842969527203095,-0.21010455769462202,-0.22971646621218253
7.876075683913191,0.8869761514288247,-0.21240172235674384,-0.22128944136688472
7.884945445427479,0.789417527337919,-0.2146146167704127,-0.21564627847726411
7.892839620700858,0.6916206379936939,-0.21677107955518532,-0.2125064325902227
7.899755827080795,0.5935923033135608,-0.21889614388108755,-0.21158776046139616
7.90569175011393,0.49534565987256407,-0.2210120214857015,-0.21260646327946203
7.910645206712656,0.3968993249491885,-0.22313808611849614,-0.2152771053794198
7.9146141999621475,0.2982766566388139,-0.22529085717229033,-0.21931269172636267
7.917596966528536,0.19950509659464968,-0.22748398408955395,-0.22442479094936532
7.919592017494482,0.10061558203530267,-0.2297282319990476,-0.2303236941679722
7.920598173314835,0.0016420136297714133,-0.23203146894072732,-0.23671860280009868
7.920614593451133,-0.09737923421475503,-0.2343986549687283,-0.24331784098356596
7.919640801108986,-0.19640977423995215,-0.23683183337856395,-0.24982909019334443
7.9176767033665865,-0.2954096520658935,-0.23933012428049738,-0.25595964509845504
7.9147226068459275,-0.39433779048358497,-0.24188972073148193,-0.2614166906782719
7.910779228941092,-0.49315244602801367,-0.24450388763826464,-0.2659076011060103
7.905847704480811,-0.5918116914755164,-0.24716296364932475,-0.2691402609022898
7.899929587566056,-0.6902739377536145,-0.24985436625834764,-0.27082340835551555
7.893026848188519,-0.7884985085060768,-0.2525626003419028,-0.27066700018752926
7.885141863103459,-0.886446280217146,-0.2552692703437781,-0.26838259489998534
7.876277400301287,-0.9840804003680037,-0.25795309629277796,-0.26368375015623907
7.866436596297607,-1.081367095583892,-0.26058993379434037,-0.25628642692332365
