th1 (rad),w1 (rad/s),th2 (rad),w2 (rad/s),a1 (rad/s^2),a2 (rad/s^2)
3.503504178258179,-0.36020652632333844,1.9264801931245255,-1.0670822758046083,2.8723463916337564,-9.03896982762381
3.4999021129949455,-0.3314830624070009,1.9158093703664794,-1.1574719740808463,2.706624211786424,-9.076637555867684
3.4965872823708755,-0.30441682028913664,1.9042346506256709,-1.2482383496395233,2.5292532120927285,-9.113076168064428
3.4935431141679842,-0.27912428816820933,1.8917522671292757,-1.3393691113201676,2.3400594558236643,-9.149165563329781
3.490751871286302,-0.2557236936099727,1.878358576016074,-1.4308607669534654,2.138864865116096,-9.185846406534244
3.4881946343502026,-0.23433504495881174,1.8640499683465392,-1.5227192310188078,1.9254810308699677,-9.224115219893484
3.4858512839006144,-0.21508023465011206,1.8488227760363511,-1.6149603832177426,1.6997029494664286,-9.265019061698668
3.4837004815541133,-0.19808320515544778,1.8326731722041738,-1.7076105738347294,1.4613028199431939,-9.309649843694457
3.481719649502559,-0.18347017695601583,1.8155970664658265,-1.800707072271674,1.2100240538737022,-9.359138320857651
3.4798849477329985,-0.17136993641727882,1.7975899957431098,-1.8942984554802504,0.9455756707774832,-9.41464776255167
3.4781712483688256,-0.161914179709504,1.7786470111883073,-1.9884449331057672,0.6676272752173754,-9.477367281421586
3.4765521065717304,-0.15523790695733025,1.7587625618572496,-2.083218605919983,0.3758048388441232,-9.548504755189272
3.474999727502157,-0.15147985856888901,1.7379303757980498,-2.178703653471876,0.06968754282240477,-9.629279225993185
3.473484928916468,-0.15078298314066496,1.716143339263331,-2.2749964457318077,-0.2511940251411968,-9.720912601416378
3.4719770990850614,-0.15329492339207693,1.6933933748060128,-2.3722055717459716,-0.5873579777875465,-9.824620410216104
3.4704441498511405,-0.1591685031699524,1.669671319088553,-2.4704517758481326,-0.9393691404867539,-9.941601283408344
3.4688524648194408,-0.16856219457481994,1.6449668013300718,-2.569867788682216,-1.3078345001064244,-10.07302473725198
3.4671668428736924,-0.1816405395758842,1.6192681234432496,-2.6705980360547357,-1.6933955383060812,-10.22001672848036
3.4653504374779334,-0.198574494958945,1.5925621430827022,-2.7727982033395393,-2.0967167976816063,-10.38364233385729
3.463364692528344,-0.21954166293576105,1.5648341610493068,-2.876634626678112,-2.5184699134979027,-10.56488477645359
3.4611692758989863,-0.24472636207074008,1.5360678147825257,-2.982283474442648,-2.9593122120325903,-10.764619881711901
3.4587220122782787,-0.274319484191066,1.5062449800380993,-3.089929673259767,-3.419858830954464,-10.983584900911813
3.455978817436368,-0.30851807250061064,1.4753456833055016,-3.199765522268885,-3.9006471625316483,-11.222340494262232
3.452893636711362,-0.34752454412592715,1.4433480280828128,-3.3119889272115075,-4.4020922655870605,-11.481224530653996
3.4494183912701026,-0.39154546678179775,1.4102281388106976,-3.4268011725180476,-4.924431751303453,-11.760296251770322
3.4455029366022845,-0.4407897842948323,1.375960127085517,-3.5444041350357507,-5.467658543108229,-12.059269288028524
3.441095038759336,-0.49546636972591457,1.3405160857351595,-3.664996827916036,-6.0314398738846196,-12.377432035995795
3.436140375062077,-0.5557807684647608,1.3038661174559991,-3.7887711482759943,-6.615020959540963,-12.713554057526046
3.4305825673774293,-0.6219309780601704,1.265978405973239,-3.915906688851255,-7.217112037357166,-13.065777501448942
3.4243632575968275,-0.694102098433742,1.2268193390847266,-4.046564463865744,-7.835757959974881,-13.431493158446715
3.4174222366124902,-0.7724596780334909,1.186353694446069,-4.180879395450211,-8.468190390919037,-13.807201736378147
3.4096976398321552,-0.8571415819426813,1.1445449004915669,-4.318951412813993,-9.110663973426867,-14.188362400289432
3.4011262240127285,-0.94824822167695,1.101355386363427,-4.460835036816888,-9.758279771996618,-14.569232680349248
3.391643741795959,-1.0458310193969163,1.056747035995258,-4.60652736362038,-10.404801944739123,-14.942706625420543
3.38118543160199,-1.1498790388443074,1.0106817623590543,-4.755954429874585,-11.042477096010943,-15.300161646579836
3.369686641213547,-1.2603038098044168,0.9631222180603084,-4.908956046340383,-11.661870115071943,-15.631328848689506
3.3570836031155027,-1.3769225109551362,0.9140326575969046,-5.065269334827278,-12.251735429160503,-15.924206639204769
3.3433143780059513,-1.499439865246741,0.8633799642486317,-5.224511401219325,-12.79894817913208,-16.165042656067264
3.328319979353484,-1.6274293470380619,0.8111348502364385,-5.386161827779998,-13.288525250189924,-16.33841388014462
3.3120456858831036,-1.7603145995399612,0.7572732319586385,-5.549545966581444,-13.703770357509393,-16.427438110426564
3.294442539887704,-1.897352303115055,0.701777772292824,-5.71382034768571,-14.026579060924702,-16.414150284474143
3.2754690168565532,-2.037618093724302,0.644639568815967,-5.877961850530451,-14.237936844480204,-16.280072592229466
3.25509283591931,-2.179997462169104,0.5858599503106624,-6.040762576452746,-14.318634253163658,-16.00699605325921
3.233292861297619,-2.3231838047007405,0.5254523245461349,-6.200832536985338,-14.250205799211518,-15.577971713032797
3.2100610232506117,-2.4656858626928555,0.4634439991762815,-6.356612254115666,-14.016073137083236,-14.978481499443616
3.1854041646236833,-2.6058465940636877,0.3998778766351248,-6.506397069110102,-13.602838832482599,-14.197723673144159
3.1593456986830466,-2.741874982388514,0.33481390594402377,-6.648374305841544,-13.001638435779258,-13.22990998699111
3.1319269488591615,-2.8718913667463064,0.26833016288560835,-6.780673405711455,-12.20942192478293,-12.075438266641331
3.1032080351916984,-2.993985585994136,0.20052342882849378,-6.901427788377868,-11.230009685026335,-10.741784293817068
3.073268179331757,-3.106285682844399,0.1315091509447151,-7.0088456313160385,-10.074762495246553,-9.243959770587566
3.042205322503313,-3.2070333077968645,0.06142069463155471,-7.101285229021914,-8.762726822460051,-7.604414892916731
3.010134989425344,-3.294660576021465,-0.009592157658664432,-7.177329377951081,-7.320168194598873,-5.852324631476928
2.9771883836651294,-3.3678622579674538,-0.08136545143817525,-7.235852624265851,-5.779481081060983,-4.022279164567693
2.943509761085455,-3.4256570687780634,-0.15372397768083376,-7.276075415911528,-4.177550556689441,-2.152485708498137
2.909253190397674,-3.467432574344958,-0.22648473183994905,-7.297600272996509,-2.553721228536468,-0.28266235795665823
2.8745788646542247,-3.4929697866303226,-0.2994607345699141,-7.3004268965760755,-0.9475848612083764,1.5481522820528337
2.8396491667879213,-3.5024456352424065,-0.3724650035356749,-7.284945373755547,0.6031820997099391,3.303646123258801
2.804624710435497,-3.496413814245307,-0.4453144572732304,-7.251908912522959,2.0647190054483997,4.951944170104866
2.769660572293044,-3.475766624190823,-0.51783354639846,-7.2023894708219105,3.4084584337459773,6.466851564031844
2.734902906051136,-3.4416820398533634,-0.5898574411066791,-7.137720955181592,4.612088972479993,7.828571756508461
2.700486085652602,-3.3955611501285636,-0.6612346506584951,-7.0594352376165075,5.65998409340566,9.023912109963089
2.6665304741513163,-3.338961309194507,-0.7318290030346601,-6.969196116516876,6.543139989368561,10.046043264222142
2.6331408610593714,-3.2735299093008217,-0.8015209641998289,-6.868735683874655,7.258709188278367,10.893911727201285
2.600405561966363,-3.200942817418038,-0.8702083210385754,-6.759796566602642,7.8092400570169875,11.571417703641544
2.5683961337921826,-3.1228504168478683,-0.9378062867046018,-6.644082389566226,8.20173693163423,12.086466240066187
2.537167629623704,-3.040833047531526,-1.004247110600264,-6.523217727165565,8.446646072990806,12.449984913341275
2.506759299148389,-2.956366586801618,-1.0694792878719195,-6.398717878032152,8.556854263818,12.674980891308856
2.4771956332803726,-2.870798044163438,-1.133466466652241,-6.271968069119064,8.546764513267359,12.775688482699104
2.4484876528387383,-2.7853303990307645,-1.1961861473434316,-6.144211184292073,8.431490822120173,12.766838119413048
2.4206343488484308,-2.7010154908095627,-1.2576282591863523,-6.016542803097942,8.226193836657652,12.663060684059685
2.3936241939403353,-2.6187535524429864,-1.3177936872173317,-5.889912196257345,7.945562883683199,12.478427871408043
2.3674366584159054,-2.5392979236061546,-1.376692809179905,-5.765127917543265,7.603437821366114,12.226119875409651
2.342043679179844,-2.4632635453924934,-1.4343440883553378,-5.642866718789168,7.212556203046884,11.91820575289053
2.3174110437259188,-2.3911379833620243,-1.4907727555432295,-5.523684661260263,6.7844068803385476,11.565518752887709
2.2934996638922986,-2.3232939145586387,-1.546009602155832,-5.408029473731386,6.329169623480665,11.177608062649956
2.2702667247467123,-2.260002218323832,-1.6000898968931458,-5.2962533931048865,5.85572082908581,10.762749166557114
2.247666702563474,-2.2014450100329737,-1.6530524308241947,-5.188625901439315,5.371687200328861,10.327996772007653
2.225652252463144,-2.147728138029685,-1.7049386898385879,-5.085345933719239,4.883531824970002,9.879266557382737
2.204174971082847,-2.098892819779985,-1.7557921491757802,-4.986553268145411,4.396659886642703,9.421434483956578
2.183186042885047,-2.054926220913558,-1.8056576818572343,-4.892338923305846,3.9155340066922864,8.958444835649535
2.1626367806759115,-2.0157708808466355,-1.8545810710902928,-4.80275447494935,3.4437917290142526,8.4934203503558
2.142479071867445,-1.981332963556493,-1.9026086158397864,-4.717820271445793,2.984359824653087,8.028769700994976
2.12266574223188,-1.951489365309962,-1.9497868185542442,-4.637532574435843,2.539561870745376,7.5662891448905
2.1031508485787804,-1.9260937466025083,-1.9961621442986026,-4.561869682986938,2.111216959547998,7.107256394918863
2.0838899111127556,-1.9049815770070284,-2.041780841128472,-4.490797119037749,1.700728454417618,6.65251570567186
2.064840095342685,-1.8879742924628522,-2.0866888123188496,-4.424271961981031,1.3091624802866821,6.202553854275015
2.0459603524180565,-1.8748826676599855,-2.13093153193866,-4.362246423438281,0.9373163694520156,5.7575671734249125
2.0272115257414565,-1.8655095039654652,-2.174553996173043,-4.304670751704031,0.5857776299222279,5.3175201068384945
2.008556430701802,-1.859651727666243,-2.2176007036900836,-4.251495550635647,0.2549742080213444,4.882195943300437
1.9899599134251393,-1.8571019855860296,-2.26011565919644,-4.202673591202642,-0.0547830827916675,4.451240477690025
1.971388893569279,-1.8576498164139463,-2.3021423951084663,-4.158161186425742,-0.3432650682899394,4.024199372555019
1.9528123954051395,-1.8610824670968458,-2.3437240069727237,-4.117919192700192,-0.6102947795454544,3.6005499730827393
1.934201570734171,-1.8671854148923004,-2.3849031988997256,-4.081913692969365,-0.8557232579894477,3.179728277812003
1.915529716585248,-1.8757426474721948,-2.4257223358294193,-4.050116410191245,-1.0794098519337043,2.761151699064976
1.8967722901105262,-1.8865367459915319,-2.4662234999313317,-4.022504893200595,-1.2812063391315294,2.3442381694103975
1.8779069226506109,-1.8993488093828472,-2.5064485488633377,-3.999062511506491,-1.460944294501624,1.928422069413958
1.8589134345567824,-1.9139582523278635,-2.5464391739784027,-3.979778290812351,-1.61842520481479,1.5131673713961782
1.8397738520335036,-1.9301425043760114,-2.586236956886526,-3.9646466170983894,-1.7534129102458926,1.0979783163298584
1.8204724269897434,-1.9476766334784703,-2.62588342305751,-3.953666833935091,-1.8656280246284134,0.6824078677344813
1.8009956606549586,-1.9663329137247545,-2.665420091396861,-3.946842755257746,-1.9547440511616379,0.2660641180998698
1.7813323315177112,-1.9858803542363708,-2.7048885189494385,-3.9441821140767472,-2.0203849678152186,-0.15138523984527277
1.7614735279753475,-2.006084203914523,-2.744330340090206,-3.9456959664752,-2.0621241066089064,-0.5702103229386605
1.7414126859362022,-2.026705444980612,-2.783787299754958,-3.9513980697045867,-2.079484193277669,-0.9906183479026665
1.7211456314863962,-2.047500286913389,-2.8233012804520037,-3.9613042531836133,-2.0719384485309247,-1.4127548507261767
1.7006706286172624,-2.068219671398698,-2.8629143229838396,-3.975431801690875,-2.038912679088959,-1.836706928629482
1.6799884319032754,-2.0886087981895876,-2.9026686410007483,-3.99379887097717,-1.9797883057516559,-2.2625086391303806
1.6591023439213795,-2.108406681247104,-2.94260662971052,-4.016423957368474,-1.8939062866561867,-2.6901487278031393
1.6380182771089085,-2.127345744113666,-2.9827708692842045,-4.043325444646506,-1.7805718962742096,-3.1195808893639865
1.6167448196677718,-2.145151463076408,-3.0232041237306695,-4.074521253540145,-1.639060314229664,-3.5507367954598776
1.5952933050370077,-2.1615420662187046,-3.063949336266071,-4.110028621494744,-1.468622962389744,-3.9835421465488716
1.5736778843748207,-2.176228295842602,-3.1050496224810185,-4.149864042960233,-1.268494503773136,-4.417936023940018
1.5519156014163946,-2.1889132408803333,-3.146548262910621,-4.1940434031996325,-1.0379003828416424,-4.853893830630722
1.5300264690075913,-2.19929224470875,-3.1884886969426174,-4.24258234150594,-0.7760647444536602,-5.291454115052008
1.508033546560504,-2.2070528921532864,-3.230914520357677,-4.29549688265646,-0.48221851975685875,-5.730749568926752
1.485963017638971,-2.211875077350855,-3.2738694891842415,-4.352804378345727,-0.15560741441430986,-6.172042477415336
1.4638442668654625,-2.2134311514949983,-3.3173975329676986,-4.41452480311988,0.20450051759530005,-6.6157648740177875
1.4417099553505126,-2.2113861463190454,-3.3615427809988976,-4.480682451860058,0.5988080756282786,-7.06256361036312
1.4195960938873222,-2.2053980655627625,-3.406349605517498,-4.5513080879636885,1.02798327607286,-7.5133504856262805
1.3975421132316945,-2.195118232802034,-3.451862686397135,-4.626441592819951,1.492655255487683,-7.969357481224685
1.3755909309036742,-2.180191680247157,-3.498127102325334,-4.706135167632198,1.993412022835466,-8.43219699586748
1.3537890141012026,-2.1602575600188025,-3.5451884540016563,-4.790457137590872,2.5308002090032784,-8.903926744283744
1.3321864385010145,-2.1349495579287696,-3.593093025377565,-4.879496405033709,3.1053266542738758,-9.387118620830542
1.3108369429217268,-2.103896291386031,-3.641887989427902,-4.973367591242015,3.717461142298143,-9.884930255684335
1.2897979800078665,-2.0667216799630497,-3.691621665340322,-5.072216893798858,4.367638713487549,-10.401177074082916
1.269130763208236,-2.0230452928281744,-3.7423438342783104,-5.176228664539687,5.056258589758876,-10.94040119312923
1.2489003102799543,-1.9724827069305857,-3.7941061209237072,-5.285632676470979,5.783674535843642,-11.50793110863984
1.2291754832106485,-1.9146459615721492,-3.846962447688417,-5.4007119875573775,6.550168034816719,-12.109922277719813
1.210029023594927,-1.849144281223982,-3.900969567563991,-5.521811210334576,7.355890289335403,-12.753362496551789
1.1915375807826871,-1.775585378330628,-3.9561876796673365,-5.649344835300094,8.200750719317602,-13.446015982618043
1.1737817269993809,-1.6935778711374518,-4.012681128020337,-5.783804995126275,9.084216673597917,-14.196264045492418
1.1568459482880065,-1.6027357044014727,-4.0705191779716,-5.925767635581199,10.004968996264562,-15.01277466018293
1.1408185912439917,-1.5026860144388272,-4.129776854327412,-6.075895382183028,10.96032712329148,-15.903892784866198
1.1257917310996033,-1.3930827432059125,-4.190535808149242,-6.23493431003169,11.94531012077057,-16.876580021850636
1.1118609036675442,-1.2736296419982067,-4.25288515124956,-6.403700110250196,12.951129350771502,-17.934635447500874
1.0991246072475622,-1.1441183484904918,-4.316922152352062,-6.583046464725205,13.962806433959726,-19.075786546181476
1.0876834237626574,-1.0044902841508945,-4.382752616999314,-6.77380433018702,14.955472981458177,-20.287041367195773
1.0776385209211483,-0.8549355543363126,-4.450490660301184,-6.976674743858978,15.888749946578082,-21.537452927591662
1.0690891653777852,-0.6960480548705318,-4.5202574077397735,-7.192049273134895,16.698490459962027,-22.767244682127817
1.0621286848290798,-0.5290631502709116,-4.592177900471122,-7.419721719956173,17.285296100754735,-23.872333834960084
1.0568380533263708,-0.35621018926336423,-4.666375117670683,-7.658445058305774,17.50005257249493,-24.68429211198062
1.053275951433737,-0.18120966353841492,-4.742959568253741,-7.90528797942558,17.12921474804656,-24.948974288161708
1.051463854798353,-0.0099175160579493,-4.822012448047997,-8.154777722307196,15.888105063864133,-24.314367623564372
1.0513646796377736,0.14896353458069203,-4.903560225271069,-8.39792139854284,13.439837989810098,-22.35083385563181
1.0528543149835805,0.283361914478793,-4.987539439256498,-8.621429737099158,9.46674927588484,-18.639765667602934
1.0556879341283685,0.3780294072376414,-5.07375373662749,-8.807827393775186,3.8145836561338444,-12.958542802326901
1.0594682282007448,0.41617524379897985,-5.1618320105652415,-8.937412821798455,-3.319762574151397,-5.524058522503889
1.0636299806387346,0.3829776180574659,-5.2512061387832265,-8.992653407023495,-11.278000354066526,2.8654943487476143
1.0674597568193092,0.27019761451680063,-5.341132672853462,-8.963998463536019,-19.066743241908966,11.000223627037757
1.0701617329644773,0.07953018209771096,-5.430772657488822,-8.853996227265641,-25.726888871609944,17.74261436170688
1.0709570347854545,-0.17773870661838848,-5.519312619761478,-8.676570083648572,-30.70078045114431,22.495226866319253
1.0691796477192705,-0.4847465111298316,-5.606078320597963,-8.45161781498538,-33.933449700839944,25.308234176139596
1.0643321826079721,-0.824081008138231,-5.690594498747817,-8.198535473223984,-35.709762535869054,26.644677339060394
1.05609137252659,-1.1811786334969216,-5.772579853480057,-7.93208869983338,-36.42416349964303,27.072670204681142
1.0442795861916208,-1.545420268493352,-5.85190074047839,-7.661361997786568,-36.42970335199591,27.07417269638445
1.0288253835066872,-1.9097173020133111,-5.928514360456256,-7.3906202708227235,-35.98515060959578,26.986104400625912
1.0097282104865541,-2.269568808109269,-6.002420563164483,-7.120759226816465,-35.259317634132444,27.014238806910345
0.9870325224054615,-2.6221619844505932,-6.0736281554326474,-6.850616838747361,-34.354693775352544,27.268680118770412
0.9608109025609556,-2.9657089222041186,-6.142134323820121,-6.577930037559657,-33.33133681333771,27.79677510137707
0.9311538133389143,-3.2990222903374957,-6.207913624195718,-6.299962286545886,-32.22508166694429,28.606976557834063
0.8981635904355394,-3.621273107006939,-6.270913247061177,-6.013892520967546,-31.059822367238752,29.684384221294142
0.86195085936547,-3.9318713306793263,-6.331052172270852,-5.717048678754605,-29.855233631663808,31.000426917200986
0.8226321460586767,-4.230423666995964,-6.388222659058399,-5.4070444095825945,-28.63133949253184,32.518909365907156
0.7803279093887171,-4.516737061921282,-6.442293103154225,-5.081855315923523,-27.41097728486096,34.1999714350439
0.7351605387695043,-4.790846834769892,-6.49311165631346,-4.739855601573084,-26.220851384852864,36.00289811775147
0.6872520704218054,-5.05305534861842,-6.540510212329191,-4.379826620395569,-25.091613502655452,37.8882693022234
0.6367215169356212,-5.3039714836449745,-6.5843084785331465,-4.000943927373335,-24.057232812936345,39.819621564794126
0.5836818020991714,-5.5445438117743375,-6.62431791780688,-3.6027477117253937,-23.15379229549789,41.76455854350304
0.528236363981428,-5.776081734729316,-6.660345394924134,-3.185102126290363,-22.417726901498014,43.695041305317424
0.4704755466341349,-6.000259003744296,-6.692196416187038,-2.748151713237189,-21.88336295546246,45.586363430251076
0.4104729565966919,-6.219092633298921,-6.719677933319409,-2.292288078934678,-21.57937895392275,47.41400435267768
0.3482820302637027,-6.434886422838148,-6.742600814108756,-1.8181480354079012,-21.52342668071083,49.14707686107438
0.2839331660353212,-6.650120689645257,-6.760782294462835,-1.3266772667971574,-21.71356122282112,50.736345951677826
0.21743195913886865,-6.867256301873468,-6.7740490671308065,-0.8193138072803791,-22.114292266302062,52.09374857071715
