th1 (rad),w1 (rad/s),th2 (rad),w2 (rad/s)
4.724385043715042,1.5972891067010975,2.8589071367376255,1.8888280659252072
4.740357934782053,1.6813329402855999,2.8777954173968774,1.9103152289251204
4.757171264184909,1.765520772335778,2.8968985696861287,1.9360521282510523
4.774826471908267,1.8497683629537167,2.916259090968639,1.9662329382554957
4.793324155537804,1.933982359832961,2.935921420351194,2.001047312050805
4.812663979136134,2.018059188512469,2.955931893471702,2.0406789092290993
4.832844571021258,2.101883797204815,2.976338682563993,2.085303774325794
4.853863408993306,2.185328256982932,2.997191720307251,2.135088558126763
4.875716691563135,2.268250221583751,3.018542605888519,2.190188575584508
4.898399193778973,2.3504912552622987,3.0404444916443643,2.2507456967219506
4.921904106331596,2.431875042065593,3.062951948611584,2.316886070627486
4.946222856752252,2.51220549564111,3.0861208093178587,2.3887176876435325
4.971344911708663,2.5912647952805945,3.110007986194294,2.466327791275092
4.9972575596614695,2.6688113813301415,3.134671264107045,2.549780159326694
5.0239456734747705,2.744577951336468,3.160169065700312,2.639112283415463
5.051391452988135,2.818269507259491,3.1865601885344668,2.7343324873581376
5.07957414806073,2.8895615136075126,3.2139035134080483,2.835417037981023
5.108469763196805,2.958098236203352,3.2422576837878583,2.9423073165626104
5.1380507455588385,3.0234913411245987,3.2716807569534843,3.0549071351959958
5.168285658970085,3.0853188427135754,3.3022298283054443,3.1730802995361094
5.19913884739722,3.1431244978174493,3.333960631300805,3.2966485372145087
5.230570092375395,3.1964177498348607,3.3669271166729504,3.425389929036136
5.262534269873743,3.2446743297843743,3.401181015963312,3.5590379971091246
5.294981013171587,3.2873376213746552,3.436771395934403,3.697281619296624
5.327854389385334,3.323820891691289,3.473744212127369,3.8397659516184843
5.361092598302247,3.3535104772386624,3.512141871643554,3.9860945480889134
5.394627703074634,3.375769995237911,3.552002817124443,4.135832869431554
5.428385403027013,3.389945620861998,3.5933611458187587,4.288513366579354
5.462284859235633,3.3953724312323432,3.6362462794845523,4.443642310317711
5.496238583547957,3.3913817656089673,3.6806827025877293,4.600708513586326
5.530152401204046,3.3773094879678838,3.7266897877235925,4.7591940570371944
5.563925496083725,3.3525049636215396,3.7742817282939645,4.918587081489267
5.597450545719941,3.3163404773731546,3.823467599108857,5.07839665414495
5.6306139504936725,3.2682207299326755,3.8742515656503067,5.238169651623333
5.663296157792999,3.2075919564700675,3.92663326216654,5.397509536695339
5.6953720773577,3.133950122180757,3.980608357533493,5.556096843835202
5.726711578579507,3.0468475716709356,4.036169325971845,5.7137111401232845
5.757180054296216,2.945897449509113,4.093306437373078,5.870254203076197
5.786639028791307,2.830775175916704,4.15200897940384,6.025774166863448
5.814946780550474,2.7012162607218353,4.212266721072474,6.180490443739413
5.841958943157692,2.557009775145933,4.274071625509868,6.334819336454758
5.867529040909152,2.3979868779592217,4.337419818874416,6.489400422650238
5.891508909688744,2.2240039134167926,4.4023138231009185,6.645124007150374
5.913748948822912,2.0349197713156335,4.468765063172422,6.803160180282918
5.934098146536068,1.8305674471104485,4.536796664975252,6.96499024044401
5.952403821007173,1.6107201182344042,4.606446567379692,7.132441339205535
5.968511022189517,1.3750526865222998,4.677770980771747,7.307724998473233
5.982261549054741,1.123100887329564,4.750848230756479,7.493479266858982
5.993492557928036,0.8542222601973566,4.825783023425069,7.692812016469218
6.00203478053001,0.5675675523274326,4.9027111435897615,7.90933784082061
6.007710456053284,0.26207950445706246,4.981804521997968,8.147190475571234
6.010331251097855,-0.06344768625325747,5.0632764267536805,8.410971346281231
6.009696774235323,-0.4101834467937118,5.147386140216493,8.705552800519893
6.005594939767386,-0.7788266054373829,5.234441668221692,9.035574226336674
5.997806673713012,-1.1686931782956447,5.324797410485059,9.404324134245007
5.986119741930056,-1.5759335268328938,5.418840651827509,9.811469421795259
5.970360406661727,-1.9903102937564143,5.516955346045461,10.248831600038665
5.950457303724162,-2.3900762110631715,5.619443662045848,10.693512816188731
5.926556541613531,-2.7358353943740084,5.726378790207735,11.099442224838725
5.899198187669791,-2.968521292332317,5.837373212456122,11.394155531896434
5.869512974746468,-3.0227132838435136,5.951314767775087,11.49594529960981
5.8392858419080325,-2.861399270235731,6.066274220771185,11.359634557090084
5.810671849205675,-2.5073519180879504,6.179870566342086,11.017334283072664
5.785598330024795,-2.030486993993392,6.290043909172813,10.560021769679048
5.7652934600848615,-1.5031221753360562,6.395644126869604,10.07774523839139
5.750262238331501,-0.9722573806624996,6.496421579253518,9.624586434033983
5.740539664524876,-0.45998279569056433,6.592667443593857,9.22126652180614
5.735939836567971,0.026400072614472414,6.684880108811918,8.86960029499709
5.7362038372941155,0.4863049719041091,6.773576111761889,8.563363517937306
5.741066887013156,0.9215072847351936,6.859209746941262,8.293878319647678
5.750281959860509,1.334185146012826,6.942148530137739,8.05237571020655
5.763623811320637,1.7261550866943591,7.022672287239804,7.830832792365021
5.780885362187581,2.098642176574277,7.100980615163454,7.622179555596447
5.801871783953324,2.452274779067653,7.177202410719419,7.42027838890388
5.8263945317440005,2.7871680832919923,7.2514051946084574,7.219842720279253
5.8542662125769205,3.1030390112568296,7.32360362181125,7.01635715423842
5.885296602689489,3.399328666827791,7.393767193353634,6.806017771963424
5.919289889357767,3.6753221864179175,7.4618273710732685,6.585693602765244
5.9560431112219465,3.930261047584495,7.527684307100921,6.352903670257829
5.995345721697792,4.163444650872668,7.5912133438035,6.105802119204241
6.036980168206519,4.374318547580586,7.652271364995543,5.843164098586298
6.080723353682324,4.562547008472084,7.710703005981406,5.564366204891628
6.126348823767045,4.728068094698949,7.766346668030322,5.269356878972375
6.173629504714034,4.87113009711074,7.819040236820046,4.958613932680061
6.222340805685142,4.992309110368091,7.868626376146846,4.633088175881834
6.2722638967888225,5.092508500871492,7.914957257905664,4.294133777699541
6.3231889817975375,5.172941996093091,7.95789859568266,3.9434274152531135
6.374918401758468,5.235102964264732,7.997332869835191,3.582879356839994
6.427269431401116,5.280723090217843,8.033161663403591,3.2145403431864805
6.480076662303294,5.311724037362607,8.065307066835457,2.8405084484880287
6.533193902676921,5.330165796835072,8.093712151320338,2.46284002925439
6.586495560645271,5.3381952669148305,8.118340551612881,2.0834684395547325
6.639877513314419,5.337998204862393,8.139175236008429,1.7041334727410025
6.693257495363043,5.331757093428451,8.156216570735838,1.3263235786037826
6.746575066297328,5.32161672163024,8.169479806521876,0.9512319225511787
6.79979123351363,5.3096584523749835,8.178992125747389,0.5797264369089071
6.852887818037379,5.297883284816426,8.184789390116478,0.21233330670928713
6.905866650885543,5.288202934642413,8.186912723183571,-0.15076702297276456
6.958748680231968,5.282437219476225,8.185405052953843,-0.5097320828750971
7.01157305242673,5.282314945167328,8.180307732125092,-0.8650377884353183
7.064396201878403,5.289474034523669,8.17165735424074,-1.2174451668290343
7.11729094222364,5.305454470083709,8.15948290257245,-1.567948395553707
7.170345486924477,5.331674183941987,8.143803418616912,-1.9176939601268332
7.223662228763897,5.369372519364919,8.124626479015644,-2.267852516079202
7.277355953957546,5.419497302046824,8.101947953854852,-2.619412488488366
7.331550926978014,5.48249906242619,8.075753828969969,-2.9728465157656445
7.386375917602276,5.557980303778348,8.046025363812312,-3.3275797341610094
7.44195572064006,5.64413523477417,8.012749566470703,-3.6811716180266667
7.498397072987801,5.7369270944471875,7.975937850290436,-4.028140292845549
7.555766343932273,5.829037380107783,7.935656447361981,-4.358482029825291
7.614056717733351,5.908874660671657,7.892071627063729,-4.656296137343546
7.673145464340068,5.960421523638205,7.845508665690293,-4.899615361215627
7.732749679576449,5.965223233739122,7.796512512078136,-5.06327447561946
7.79240191191384,5.907499044265066,7.7458797673219415,-5.126179726748233
7.851476902356491,5.781033906128194,7.694617970054459,-5.081049665838696
7.909287241417773,5.5932888066776805,7.643807473396072,-4.940159633668436
7.96522012948455,5.3627076381448155,7.594405877059388,-4.731417101394758
8.018847205865997,5.110998474850588,7.54709170604544,-4.487318913264576
8.069957190614502,4.856233955084448,7.502218516912794,-4.235090052224493
8.118519530165347,4.610145755141973,7.459867616390549,-3.992795355097554
8.164620987716766,4.378755961320995,7.419939662839574,-3.7702131860232218
8.208408547329975,4.164185943250214,7.382237530979341,-3.571405770047359
8.250050406762478,3.966315828237122,7.346523473278868,-3.3970945187356354
8.289713565044849,3.783916276310098,7.312552528091512,-3.246293590414078
8.32755272780795,3.6153123389469086,7.280089592187371,-3.11727970753178
8.36370585119742,3.458735135139215,7.248916795112054,-3.008115907832112
8.398293202548812,3.312490617033774,7.218835636033733,-2.9169116575484284
8.43141810871915,3.175029086405257,7.189666519458249,-2.8419381746572796
8.463168399583203,3.044964007118962,7.161247137711676,-2.7816684074784956
8.493618039654393,2.9210666464567487,7.133430453636891,-2.7347799518805482
8.522828706118961,2.8022504656524028,7.106082654118086,-2.7001412217244454
8.550851210775486,2.687552287578993,7.079081241900841,-2.67679129191972
8.577726733651275,2.5761136141037335,7.0523133289816435,-2.663918530555686
8.603487869792312,2.4671635754812526,7.025674143676087,-2.660840352071486
8.628159505547124,2.3600040465376537,6.9990657401553715,-2.6669849921179707
8.651759546012501,2.2539970125606192,6.972395890234192,-2.6818754904570814
8.674299516138108,2.148554072971026,6.945577135329621,-2.705115728656762
8.695785056867818,2.043127906655275,6.9185259780430535,-2.736378221877599
8.716216335934371,1.9372055230100793,6.891162195824277,-2.7753933120127896
8.735588391164471,1.8303031528853828,6.86340826270415,-2.8219394021682813
8.753891422693325,1.7219626760556788,6.835188868682467,-2.8758338839653907
8.771111049453882,1.611749527611253,6.806430529842813,-2.936924426722685
8.787228544729995,1.499252070025328,6.777061285575586,-3.0050803158145674
8.802221065430249,1.3840824577796713,6.747010482417441,-3.080183545142122
8.816061890008045,1.265879054977142,6.716208646966019,-3.162119386990338
8.828720680557817,1.1443104906588262,6.684587453096116,-3.250766184730487
8.840163785464405,1.0190814480300194,6.652079791248811,-3.34598414455709
8.850354599944705,0.8899402777204837,6.61861994980324,-3.4476029478812413
8.85925400272191,0.7566884954120211,6.584143920324428,-3.5554080736516305
8.86682088767603,0.6191921632006219,6.548589839587912,-3.669125818344797
8.873012809308035,0.4773950535942695,6.511898581404464,-3.788407139700386
8.877786759843978,0.3313333468865867,6.47401451000746,-3.9128106367069284
8.881100093312844,0.18115141049969405,6.43488640364039,-4.041785218196901
8.88291160741784,0.027117951098617282,6.394468551458421,-4.174653304999196
8.883182786928826,-0.13035847643781878,6.352722018408429,-4.310595745088517
8.881879202164448,-0.290715955145494,6.309616060957544,-4.448639971799206
8.878972042612993,-0.4532293675273852,6.265129661239552,-4.587653256771484
8.87443974893772,-0.617006176145547,6.219253128671837,-4.726343134930705
8.868269687176264,-0.7809898880095203,6.1719896973225294,-4.863267122041985
8.860459788296168,-0.943973157018196,6.123357026102109,-4.996853610265486
8.851020056725986,-1.1046220507652988,6.073388489999455,-5.125435227993079
8.839973836218332,-1.261512205863527,6.022134137719524,-5.247294941221749
8.827358714159697,-1.4131764230463824,5.969661188307307,-5.360723783145414
8.813226949929232,-1.558161801786763,5.9160539504758525,-5.464087457672157
8.797645331911365,-1.6950929774102874,5.861413075899131,-5.5558974129858845
8.780694402137263,-1.8227366796236988,5.805854101769272,-5.634880648121797
8.762467035341025,-1.9400619895857525,5.7495052952880545,-5.700041839167493
8.743066415445167,-2.04629059216939,5.69250487689638,-5.750711610835905
8.722603509523474,-2.1409321218851716,5.634997760788021,-5.786576015112042
8.701194188304623,-2.223801309136428,5.577132000636901,-5.807684360655105
8.678956175213258,-2.2950157745897117,5.51905515703035,-5.8144350986277935
8.65600601746736,-2.3549755882356718,5.4609108060440725,-5.807542023181854
8.632456261585004,-2.40432768069993,5.402835385812254,-5.787985111325048
8.608412984778004,-2.4439195374200082,5.344955534699003,-5.756951572731751
8.583973789403805,-2.4747471638392424,5.287386018971685,-5.715772987374341
8.559226317765413,-2.497902112146212,5.2302282890979415,-5.665863875734837
8.53424729664395,-2.5145215837681367,5.1735696503405935,-5.608665922778637
8.509102080806269,-2.525744515690693,5.117482991112807,-5.545600671626008
8.483844635649362,-2.5326753696415545,5.062026984396547,-5.4780320983505915
8.458517881952947,-2.536356263734175,5.007246663413041,-5.407239277953083
8.433154319315605,-2.537747231955196,4.95317427063351,-5.3343984590288445
8.407776846996054,-2.5377138098994148,4.899830286043222,-5.260573301969139
8.38239970889706,-2.537020812184219,4.847224553023531,-5.186711765494467
8.357029500775218,-2.5363310424828027,4.795357435368586,-5.11364808206163
8.33166619035039,-2.5362077034196635,4.744220954547969,-5.042108370650192
8.306304113316193,-2.537119394881112,4.693799870841467,-4.97271862989711
8.280932919367382,-2.539446759385238,4.644072684542496,-4.906014084446584
8.25553845177353,-2.5434900180497544,4.59501254369803,-4.842449087567625
8.230103551593032,-2.549476818143896,4.546588052822354,-4.782406992405548
8.204608783411594,-2.5575699706002153,4.498763982898299,-4.726209582268415
8.179033083705592,-2.5678747876579844,4.451501887075615,-4.674125794101442
8.153354335829013,-2.580445836171865,4.404760629134601,-4.626379580320995
8.127549877467294,-2.595293002986525,4.358496833331391,-4.583156836424601
8.101596947437429,-2.612386828476709,4.312665264967145,-4.544611380172688
8.075473079152662,-2.6316631066733884,4.267219151165418,-4.5108700076066635
8.049156448085927,-2.653026779036871,4.2221104510893515,-4.482036676234686
8.022626180295559,-2.676355167205067,4.177290084327004,-4.45819588022392
7.995862628623508,-2.7015006007358315,4.132708125524765,-4.439415289514321
7.968847622616149,-2.7282925012436046,4.088313972629622,-4.425747726871476
7.941564697603713,-2.7565389861801015,4.044056495360907,-4.4172325559004735
7.913999307741912,-2.786028055180147,3.9998841698019025,-4.413896550345021
7.886139027190111,-2.8165284203888294,3.9557452042984522,-4.415754311610864
7.857973742986222,-2.8477900402235514,3.9115876611823435,-4.4228082981003265
7.829495842583987,-2.8795444140988575,3.86735957820134,-4.435048527122755
7.800700398442999,-2.911504694071716,3.8230090929301124,-4.4524520081838155
7.7715853515022815,-2.9433656683299003,3.7784845728482743,-4.474981965559529
7.742151694818983,-2.9748036710136594,3.733734753192679,-4.5025869083367
7.712403658108846,-3.005476473004237,3.688708884109312,-4.535199607580259
7.682348893378803,-3.0350232089217095,3.6433568880335097,-4.572736042932718
7.651998661289586,-3.06306439646053,3.5976295276041825,-4.615094384659348
7.62136801732498,-3.0892021050885283,3.551478583757589,-4.662154081756495
7.590475996274095,-3.1130203317006147,3.504857042940024,-4.713775131999043
7.559345792957089,-3.1340856406301243,3.4577192916200334,-4.7697976153971124
7.528004936550787,-3.1519481239794125,3.410021315466062,-4.830041578056966
7.496485455310993,-3.166142734966619,3.3617208996854924,-4.894307358404218
7.464824027961327,-3.17619104126973,3.31277782610145,-4.962376451552458
7.433062117548629,-3.181603436521306,3.2631540615859254,-5.034013009641566
7.401246083183416,-3.1818818355111773,3.2128139314895097,-5.108966075541813
7.369427264828304,-3.1765228616909496,3.1617242707340916,-5.18697264374507
7.337662036211395,-3.1650215137701387,3.109854544296641,-5.267761634943817
7.306011821073693,-3.1468752712841734,3.0571769279472027,-5.351058859304689
7.274543068360852,-3.121588567033643,3.003666339354156,-5.436593027634539
7.243327182690515,-3.088677517665687,2.9493004090778103,-5.524102849789936
7.212440407513858,-3.047674763280998,2.894059380579911,-5.613345236625307
7.181963659881048,-2.99813422420064,2.837925928213658,-5.704104597019126
7.151982317639042,-2.9396355398124405,2.780884882243467,-5.796203197340598
7.122585962240917,-2.871787913054282,2.722922850270061,-5.889512530206014
7.093868083110374,-2.7942330471569643,2.664027724968001,-5.983965626368015
7.065925752638805,-2.706646831353839,2.604188068704321,-6.079570242536025
7.038859284325266,-2.6087394116721945,2.543392366278961,-6.1764228736398445
7.012771890208544,-2.500253273357731,2.4816281375425624,-6.27472357527246
6.987769357474967,-2.38095896382383,2.4188809017898376,-6.374791644961927
6.963959767836728,-2.250648099296641,2.3551329853402185,-6.47708230243375
6.941453286843762,-2.109123324163614,2.290362162315881,-6.582204629788476
6.920362053602126,-1.9561849298217047,2.2245401160179963,-6.69094117938803
6.900800204303909,-1.7916138932542338,2.157630704224116,-6.8042698205473044
6.882884065371367,-1.6151511764763324,2.089588006018643,-6.923388554487081
6.866732553606603,-1.4264732653882979,2.020354120473772,-7.049744137150046
6.85246782095272,-1.2251641834754794,1.9498566791022716,-7.185065326041901
6.840216179117965,-1.010684720848925,1.8780060258418525,-7.331401242702891
6.830109331909475,-0.7823406268312667,1.8046920134148237,-7.49116438791002
6.822285925641163,-0.539253520374285,1.7297803695357234,-7.667175616459236
6.81689339043742,-0.2803422351009187,1.653108613371131,-7.862703605730731
6.81408996808641,-0.004330073542554824,1.5744815773138237,-8.081481565920193
6.8140466673509845,0.29019151786591246,1.4936667616546218,-8.327664381574214
6.816948582529644,0.6045836152950694,1.4103901178388796,-8.60565114811542
6.822994418682595,0.9397521453470373,1.3243336063577253,-8.91962558990425
6.832391940136065,1.2953050230129277,1.235137350458683,-9.272536826581613
6.845344990366194,1.667920506507643,1.1424119821928667,-9.664035948739187
6.862024195431271,2.048413456154878,1.0457716227054747,-10.086647673189466
6.88250832999282,2.4170633849947216,0.9449051459735801,-10.519523606877806
6.906678963842768,2.737892190343782,0.839709909904802,-10.92059787316529
6.934057885746205,2.956222436105849,0.730503931173149,-11.222882303585859
6.963620110107264,3.009437844189879,0.6182751081372905,-11.348270925173344
6.9937144885491636,2.8577925399879596,0.504792398885557,-11.248096273386674
7.022292413949043,2.5158244694465592,0.3923114361516903,-10.94405118724635
7.047450658643509,2.04598642280532,0.2828709242792268,-10.518139400030458
7.067910522871562,1.5183045048274606,0.1776895302789222,-10.058399479676023
7.083093567919837,0.9809632045800329,0.07710553548216197,-9.621230326512297
7.092903199965638,0.45783694160308275,-0.019106767782961012,-9.230092745359793
7.097481569381668,-0.042517548078716216,-0.11140769523655894,-8.88856439685427
7.097056393900881,-0.5188131466308625,-0.20029333920510162,-8.591271243680163
7.091868262434573,-0.9724601158948767,-0.28620605164190327,-8.329813041670374
7.082143661275624,-1.405431450424605,-0.369504182058607,-8.09537657296869
7.0680893467713775,-1.8193949376529706,-0.4504579477882939,-7.8797140491317865
7.049895397394848,-2.2154285312951467,-0.5292550882796118,-7.675423825031294
7.0277411120818964,-2.593988376514565,-0.6060093265299247,-7.475970043331187
7.001801228316751,-2.9549817071130375,-0.6807690269632365,-7.275626592806935
6.972251411245621,-3.2978811770433745,-0.7535252928913059,-7.069417321807836
