th1 (rad),w1 (rad/s),th2 (rad),w2 (rad/s),a1 (rad/s^2),a2 (rad/s^2)
1.4969496310884094,-0.7741283306947571,3.9751994247876197,2.3070433601307023,-7.862143687732575,0.6916450195017271
1.4892083477814617,-0.8527497675720828,3.9982698583889267,2.3139598103257195,-7.960873560137406,0.5549562312424536
1.480680850105741,-0.9323585031734568,4.021409456492184,2.319509372638144,-8.074131054913874,0.40071161288632384
1.4713572650740063,-1.0130998137225955,4.0446045502185655,2.323516488767007,-8.201702910908347,0.23014893089051247
1.4612262669367804,-1.0951168428316789,4.067839715106236,2.325817978075912,-8.342849544350269,0.04523117747212687
1.4502750985084636,-1.1785453382751816,4.091097894886995,2.3262702898506333,-8.496161462388846,-0.1511399637108675
1.4384896451257119,-1.2635069528990701,4.114360597785502,2.3247588902135248,-8.659400807396015,-0.3548856573736796
1.4258545755967211,-1.3501009609730303,4.137608186687637,2.321210033639788,-8.829337067090302,-0.5604986617100562
1.4123535659869908,-1.4383943316439334,4.160820287024035,2.3156050470226877,-9.001592286583879,-0.7608005970233053
1.3979696226705514,-1.5284102545097722,4.183976337494262,2.3079970410524546,-9.170518844488647,-0.9467403848374734
1.3826855201254535,-1.6201154429546587,4.207056307904787,2.29852963720408,-9.329141254844279,-1.1072790239994394
1.366484365695907,-1.7134068555031015,4.230041604276828,2.2874568469640857,-9.469200964420272,-1.2294173711008538
1.349350297140876,-1.8080988651473042,4.252916172746469,2.275162673253077,-9.581347190346486,-1.2984304095230708
1.331269308489403,-1.9039123370507691,4.275667799479,2.2621783691578465,-9.65551407829702,-1.2983686161510644
1.3122301851188953,-2.0004674778337392,4.298289583170578,2.249194682996336,-9.681511175343712,-1.2128689309227156
1.292225510340558,-2.0972825895871763,4.320781530000541,2.237065993687109,-9.649827683179678,-1.0262802041232573
1.2712526844446863,-2.1937808664189733,4.343152189937412,2.2268031916458764,-9.552611215121868,-0.7250504112300462
1.2493148757804966,-2.289306978570192,4.365420221853871,2.219552687533576,-9.38473343477687,-0.29925161135423295
1.2264218059947947,-2.3831543129179606,4.387615748729206,2.2165601714200336,-9.144808096008992,0.25595201593404904
1.202590262865615,-2.4746023938780506,4.4097813504434065,2.2191196915793743,-8.83599601692847,0.939136588489303
1.1778442389268347,-2.562962354047335,4.4319725473592,2.2285110574642673,-8.466431186497482,1.7419997346332274
1.1522146153863613,-2.64762666591231,4.454257657933843,2.2459310548105997,-8.04914179356551,2.6494849074190263
1.125738348727238,-2.7281180838479653,4.4767169684819486,2.27242590388479,-7.6014176382270335,3.64073154577507
1.0984571678887585,-2.8041322602302357,4.499441227520797,2.3088332193425405,-7.14367595804918,4.690786013853744
1.070415845286456,-2.8755690198107273,4.522529559714222,2.355741079481078,-6.697975978521219,5.77286113907249
1.0416601550883489,-2.9425487795959393,4.546086970509033,2.4134696908718025,-6.286401541101888,6.860826436555581
1.0122346672923894,-3.0054127950069582,4.570221667417751,2.4820779552373584,-5.929552142561784,7.931576303359591
0.9821805393423199,-3.064708316432576,4.595042446970125,2.5613937182709545,-5.6453517483659645,8.966967167928859
0.9515334561779941,-3.121161833916236,4.620656384152834,2.651063389950243,-5.448313595899599,9.95512054766313
0.9203218378388318,-3.175644969875232,4.647167018052337,2.750614595426874,-5.349309973519418,10.891024654787573
0.8885653881400795,-3.229138069610426,4.674673164006606,2.85952484197475,-5.355812578488535,11.776496469970091
0.8562740074439752,-3.2826961953953115,4.703268412426353,2.9772898066744506,-5.472509590984667,12.619661325329773
0.8234470454900221,-3.337421291305158,4.733041310493098,3.1034864199277483,-5.702178178115454,13.43415529719757
0.7900728325769706,-3.394443073086313,4.764076174692375,3.237827972899724,-6.046694133149772,14.23825952793322
0.7561284018461074,-3.4549100144178104,4.796454454421372,3.380210568179056,-6.508085617396345,15.054147771465669
0.7215793017019293,-3.5199908705917737,4.830256560103163,3.530752045893713,-7.089575089928565,15.907385671388619
0.6863793929960116,-3.5908866214910593,4.8655640805621,3.6898259026075992,-7.796593291052567,16.82677762868489
0.650470526781101,-3.668852554401585,4.902462339588176,3.858093678894448,-8.63778547882808,17.844625011482346
0.6137820012370852,-3.7552304091898656,4.941043276377121,4.036539929009272,-9.626060156198545,18.99744283787536
0.5762296971451865,-3.851491010751851,4.981408675667214,4.226514357388025,-10.779753565220586,20.3271808587411
0.537714787037668,-3.959288546404057,5.023673819241094,4.429786165975436,-12.123998560656077,21.883004361262604
0.4981219015736274,-4.080528532010618,5.067971680900849,4.648616209588062,-13.692389852483009,23.723698534070923
0.4573166162535212,-4.217452430535448,5.114457842996729,4.885853194928771,-15.529014457492044,25.92074254579116
0.41514209194816676,-4.372742575110369,5.1633163749460165,5.145060620386682,-17.690826845502322,28.561997075133757
0.3714146661970631,-4.549650843565392,5.214766981149883,5.43068059113802,-20.250093287138835,31.755622575981793
0.32591815776140914,-4.752151776436781,5.269073787061263,5.748236816897838,-23.29596724759014,35.6329595879185
0.27839663999704134,-4.985111448912683,5.326556155230241,6.1045664127770225,-26.932603795010568,40.34684757096704
0.22854552550791452,-5.2544374868627886,5.387601819358012,6.5080348884866925,-31.267183044970167,46.056296418636066
0.17600115063928662,-5.56710931731249,5.4526821682428785,6.968597852673053,-36.371556379998324,52.875035597457185
0.12033005746616171,-5.930824881112474,5.522368146769609,7.497348208647625,-42.1790241924743,60.73052291145506
0.06102180865503697,-6.352615123037217,5.5973416288560855,8.104653437762176,-48.23152913578788,69.01527929344553
-0.002504342575335196,-6.834930414395096,5.678388163233707,8.794806230696631,-53.12235032685354,75.81343830441509
-0.07085364671928615,-7.366153917663631,5.766336225540674,9.552940613740782,-53.50647725062655,76.52065131079165
-0.14451518589592247,-7.901218690169896,5.861865631678082,10.318147126848698,-43.30476908829855,62.72503721409284
-0.22352737279762142,-8.334266381052881,5.965047102946569,10.945397498989626,-16.41067729075704,25.964580257550487
-0.3068700366081502,-8.498373153960452,6.074501077936465,11.205043301565132,23.032299264361395,-27.970894671880515
-0.39185376814775474,-8.268050161316838,6.186551510952116,10.925334354846326,55.62929452794606,-72.16668463430406
-0.4745342697609231,-7.711757216037377,6.295804854500579,10.203667508503285,67.59177277024926,-87.69163099349203
-0.5516518419212969,-7.035839488334884,6.397841529585612,9.326751198568365,64.37820758771637,-82.32668693413153
-0.6220102368046457,-6.39205741245772,6.491109041571296,8.50348432922705,55.99951403244735,-69.96731817961997
-0.6859308109292229,-5.832062272133246,6.5761438848635665,7.803811147430849,47.54052259803741,-57.58168576948352
-0.7442514336505553,-5.356657046152872,6.654181996337875,7.227994289736014,40.46258395351326,-47.12222206449876
-0.797818004112084,-4.95203120661774,6.726461939235235,6.756772069091026,34.87693098189098,-38.6968196606171
-0.8473383161782614,-4.60326189679883,6.794029659926145,6.369803872484855,30.546672078508998,-31.950054635632068
-0.8933709351462497,-4.297795176013739,6.857727698650994,6.050303326128534,27.202789447221193,-26.49295923533471
-0.9363488869063871,-4.025767281541527,6.918230731912279,5.785373733775187,24.621605658018275,-22.005573983645306
-0.9766065597218023,-3.7795512249613443,6.97608446925003,5.565317993938734,22.632284263710517,-18.24502828784708
-1.0144020719714157,-3.553228382324239,7.0317376491894175,5.382867711060263,21.1074372617245,-15.031675402507764
-1.049934355794658,-3.342154009706994,7.08556632630002,5.232550957035185,19.95197041284195,-12.233647078597192
-1.083355895891728,-3.1426343055785746,7.137891835870372,5.110214486249213,19.093780039000887,-9.754529984623915
-1.1147822389475137,-2.9516965051885657,7.188993980732864,5.012669186402975,18.47665524406162,-7.524503337373495
-1.1442992039993993,-2.7669299527479496,7.2391206725968935,4.93742415302924,18.054966673634794,-5.494269657605958
-1.1719685035268788,-2.5863802860116016,7.2884949141271855,4.88248145645318,17.789660716154255,-3.6310300620079783
-1.1978323063869947,-2.408483678850059,7.337319728691718,4.846171155833101,17.64519266465509,-1.9158770535308478
-1.2219171431754952,-2.2320317522035085,7.385781440250049,4.827012385297793,17.587172849500316,-0.34209772252328446
-1.2442374606975302,-2.056160023708505,7.434051564103027,4.82359140807256,17.580629835784038,1.086046751051961
-1.2647990609346151,-1.8803537253506648,7.4822874781837525,4.834451875583079,17.58890775581875,2.3544700764752977
-1.2836025981881218,-1.7044646477924772,7.530631996939583,4.8579965763478326,17.57330535714179,3.44073575955657
-1.3006472446660466,-1.5287315942210593,7.579211962703061,4.892403933943398,17.493618398188683,4.316236431844675
-1.3159345606082573,-1.3537954102391725,7.6281360020424955,4.935566298261845,17.309739971819745,4.949382189155349
-1.329472514710649,-1.180698010520975,7.677491665025114,4.985060120153399,16.98437535710944,5.309928522677521
-1.3412794948158586,-1.0108542569498806,7.727342266226648,5.038159405380174,16.48671931245131,5.374272805884115
-1.3513880373853575,-0.8459870638253675,7.7777238602804495,5.0919021334390155,15.79663893102673,5.131139633575978
-1.3598479080236112,-0.6880206745151002,7.828642881614839,5.143213529774775,14.908577296503191,4.586656950280653
-1.3667281147687622,-0.5389349015500683,7.880075016912587,5.189080099277582,13.834176787416636,3.7675710329914813
-1.3721174637842628,-0.40059313367590194,7.931965817905362,5.226755809607497,12.602671696324835,2.721453158590881
-1.3761233951210219,-0.2745664167126536,7.984233376001437,5.253970341193406,11.258508845559865,1.5133154359849552
-1.3788690592881485,-0.1619813282570549,8.03677307941337,5.269103495553256,9.856358426091962,0.2189743368532436
-1.3804888725707192,-0.0634177439961353,8.089464114368903,5.271293238921788,8.454436819618302,-1.0835454076637927
-1.3811230500106806,0.021126624200047725,8.142177046758121,5.26045778484515,7.107562806967007,-2.322692310139544
-1.3809117837686802,0.09220225226971779,8.194781624606573,5.237230861743755,5.861389439074128,-3.4403320804681568
-1.379989761245983,0.15081614666045906,8.247153933224011,5.202827540939073,4.7488050971264055,-4.395771932302699
-1.3784815997793785,0.19830419763172313,8.299182208633402,5.1588698216160465,3.788803381769583,-5.166600969731214
-1.3764985578030613,0.23619223144941898,8.350770906849563,5.107203811918734,2.98747931661445,-5.746891589459231
-1.3741366354885671,0.2660670246155635,8.40184294496875,5.049734896024142,2.3404273066400245,-6.143754457826403
-1.3714759652424116,0.2894712976819637,8.452340293928993,4.988297351445878,1.8357410000147396,-6.37328779605191
-1.368581252265592,0.3078287076821111,8.502223267443451,4.924564473485359,1.456964267580144,-6.456733422389753
-1.365502965188771,0.3223983503579126,8.551468912178304,4.859997139261461,1.185587407389266,-6.417319063129465
-1.3622789816851917,0.33425422443180525,8.600068883570918,4.795823948630166,1.0029178409492234,-6.277962264924976
-1.3589364394408736,0.3442834028412975,8.64802712305722,4.7330443259809165,0.8913250449227934,-6.059800074925647
-1.3554936054124607,0.3531966532905254,8.69535756631703,4.67244632523166,0.8349548725706919,-5.781397539771816
-1.3519616388795554,0.36154620201623233,8.742082029569346,4.614632349833942,0.8200435055842673,-5.458453830041245
-1.3483461768593932,0.369746637072075,8.788228353067685,4.560047811533529,0.8349582782915957,-5.1038368914675
-1.3446487104886724,0.378096219854991,8.833828831183022,4.509009442618854,0.8700710488129224,-4.72781054248418
-1.3408677482901226,0.3867969303431202,8.87891892560921,4.461731337194013,0.9175428934632125,-4.338355356962737
-1.3369997789866914,0.3959723592777523,8.92353623898115,4.418347783624386,0.9710739260726926,-3.9415179064160686
-1.333040055393914,0.4056830985384792,8.967719716817394,4.378932604560225,1.025651983017312,-3.5417488219855455
-1.3289832244085291,0.41593961836865234,9.011509042862995,4.343515116340369,1.0773192657598059,-3.1422085369676975
-1.3248238282248426,0.4267128110262504,9.0549441940264,4.312093030970693,1.1229661115959066,-2.745031690142351
-1.3205567001145802,0.4379424721422095,9.098065124336106,4.284642714069269,1.1601548003815172,-2.3515485686984987
-1.316177275393158,0.4495440201460247,9.1409115514768,4.261127228382285,1.1869726517734196,-1.9624660847237183
-1.3116818351916977,0.4614137466637589,9.183522823760622,4.241502567535048,1.2019117604431433,-1.5780127534300092
-1.3070676977250602,0.4734328642681903,9.225937849435972,4.225722440000748,1.2037719113198453,-1.1980528045885648
-1.3023333690823782,0.48547058338138876,9.26819507383598,4.2137419119548625,1.1915830637012694,-0.8221744762923836
-1.2974786632485642,0.49738641401840145,9.310332492955528,4.205520167191938,1.1645439951055387,-0.449757076757598
-1.2925047991083802,0.5090318539694568,9.352387694627447,4.201022596424362,1.1219740664055586,-0.08002077856423327
-1.2874144805686856,0.5202515946335124,9.394397920591691,4.20022238863872,1.0632754979466692,0.28793754077007144
-1.2822119646223504,0.5308843496129791,9.436400144478078,4.203101764046421,0.9879039702488202,0.6551197091707689
-1.2769031211262207,0.5407633893154673,9.478431162118543,4.209652961138128,0.8953457518824722,1.022610758530788
-1.2714954872330662,0.549716846834292,9.520527691729924,4.219879068723436,0.7850998993920312,1.3915708062135461
-1.2659983187647232,0.5575678458282123,9.562726482417158,4.2337947767855715,0.6566643689814433,1.763232989779292
-1.2604226403064411,0.5641344895180267,9.605064430185013,4.251427106683364,0.5095251326484488,2.138906423116816
-1.254781295411261,0.5692297408445112,9.647578701251847,4.272816170914532,0.3431476118080598,2.519983368225053
-1.249088998002816,0.5726612169625918,9.690306862960993,4.298016004596782,0.15696994091261968,2.907949974932125
-1.24336238583319,0.574230916371718,9.73328702300696,4.3270955043461035,-0.049602233803078516,3.304400031031161
-1.2376200766694727,0.5737348940336872,9.776557978050421,4.360139504656415,-0.2771995125227066,3.711051182257696
-1.2318827277291358,0.5709628989084601,9.820159373096986,4.397250016478991,-0.5264909146062369,4.129763011988614
-1.2261730987400512,0.5656979897623977,9.864131873261776,4.438547646598877,-0.7981840290470599,4.5625561902168466
-1.2205161188424272,0.5577161494719272,9.908517349727765,4.484173208501046,-1.0930223124379652,5.011631570182104
-1.2149389573477078,0.5467859263475475,9.953359081812776,4.534289524202867,-1.4117781573223545,5.479387566090907
-1.2094710980842325,0.532668144774324,9.998701977054804,4.589083399863776,-1.7552395748091612,5.968433290267381
-1.2041444166364892,0.5151157490262324,10.044592811053441,4.6487677327664505,-2.1241872106819946,6.481593617313187
-1.198993259146227,0.4938738769194124,10.091080488381106,4.713583668939583,-2.5193567788747546,7.021900358745546
-1.1940545203770327,0.4686803091306649,10.138216325070502,4.783802672527038,-2.9413796105478793,7.5925607512761335
-1.189367717285726,0.4392665130251861,10.186054351795772,4.8597282800398,-3.3906905356141515,8.196890011360885
-1.184975052155474,0.4053596076690446,10.234651634596169,4.941697180153409,-3.867387244798115,8.838188101861272
-1.1809214560787835,0.36668573522106346,10.284068606397703,5.030079061172022,-4.371017940646094,9.5195311227729
-1.1772545987265728,0.3229755558146025,10.334369397009423,5.125274372399751,-4.900263562777974,10.243433552748016
-1.1740248431684268,0.2739729201868228,10.385622140733421,5.227708707927231,-5.452466035368253,11.011317238834708
-1.1712851139665585,0.21944825983314026,10.437899227812693,5.337821880315579,-6.0229336395157755,11.822694660542831
-1.1690906313682272,0.1592189234379825,10.491277446615848,5.456048826921007,-6.6039280176606745,12.673936106033459
-1.1674984421338475,0.09317964326137575,10.545837934885059,5.5827881879813415,-7.183205507847822,13.556443644799781
-1.1665666457012338,0.02134758818289753,10.601665816764871,5.71835262442934,-7.741954317342533,14.454005929043278
-1.1663531698194047,-0.056071954990527806,10.658849343009164,5.862892683719773,-8.25195537504025,15.339078212275616
-1.16691388936931,-0.1385915087409303,10.717478269846362,6.016283465842529,-8.671838267744814,16.167773447524336
-1.1682998044567194,-0.22530989141837843,10.777641104504788,6.177961200317772,-8.94248607144016,16.873571894777463
-1.1705529033709032,-0.31473475213278,10.839420716507966,6.346696919265547,-8.982110358068727,17.36035682304182
-1.173700250892231,-0.4045558557134673,10.902887685700621,6.520300487495965,-8.682483706517456,17.49665749560428
-1.1777458094493656,-0.4913806927786419,10.96809069057558,6.695267062452008,-7.90947099700865,17.115199415284383
-1.182659616377152,-0.5704754027487284,11.0350433612001,6.866419056604852,-6.5131671205928265,16.024815397035912
-1.1883643704046392,-0.6356070739546567,11.10370755176615,7.026667210575211,-4.354338652919619,14.043745777038133
-1.1947204411441856,-0.6791504604838529,11.173974223871902,7.167104668345592,-1.3512292331130442,11.05996252930944
-1.2015119457490242,-0.6926627528149834,11.245645270555357,7.277704293638687,2.4602603161522674,7.109432025334306
-1.208438573277174,-0.6680601496534607,11.318422313491745,7.34879861389203,6.879301108617889,2.437385951019711
-1.2151191747737087,-0.5992671385672819,11.391910299630664,7.373172473402227,11.545670356430552,-2.510405784105163
-1.2211118461593815,-0.4838104350029763,11.465642024364687,7.348068415561175,16.021133539455676,-7.196225342920689
-1.2259499505094114,-0.3235990996084196,11.5391227085203,7.276106162131969,19.91820182968324,-11.159340990231282
-1.2291859415054955,-0.12441708131158719,11.611883770141619,7.164512752229656,23.00530725616535,-14.14999623219145
-1.2304301123186114,0.10563599125006631,11.683528897663916,7.0230127899077415,25.23395648168689,-16.157734710829015
-1.2293737524061108,0.3579755560669352,11.753759025562992,6.8614354427994515,26.693248733407906,-17.344661585323966
-1.2257939968454414,0.6249080434010142,11.822373379990987,6.687988826946212,27.537600272672975,-17.946878927119393
-1.2195449164114314,0.9002840461277439,11.889253268260449,6.508520037675018,27.927952177369004,-18.19733938685439
-1.210542075950154,1.179563567901434,11.954338468637198,6.3265466438064735,28.00023435663243,-18.286625069614416
-1.1987464402711396,1.4595659114677584,12.017603935075263,6.143680393110329,27.85601933871264,-18.353254033324088
-1.184150781156462,1.7381261048548848,12.079040739006366,5.960147852777088,27.565295040203242,-18.489298429890358
-1.1667695201079131,2.0137790552569172,12.138642217534137,5.775254868478185,27.173638487810987,-18.75092062371361
-1.1466317295553439,2.2855154401350273,12.19639476621892,5.587745662241049,26.709692875506136,-19.168580533787832
-1.1237765751539937,2.5526123688900886,12.252272222841329,5.39605985690317,26.191375643286847,-19.755103212536696
-1.0982504514650928,2.814526125322957,12.306232821410362,5.198508824777803,25.630523931648856,-20.511461728431733
-1.0701051902118632,3.070831364639446,12.358217909658139,4.993394207493486,25.03617584031088,-21.430723233434243
-1.0393968765654689,3.321193123042555,12.408151851733074,4.779086975159143,24.41679838461946,-22.500699779120005
-1.0061849453350433,3.5653611068887496,12.455942721484664,4.554079977367943,23.78174029563307,-23.70575811728853
-0.9705313342661558,3.8031785098450803,12.501483521258344,4.317022396195058,23.142118119419436,-25.028115491957376
-0.9324995491677049,4.034599691039275,12.544653745220295,4.066741241275484,22.51127817938888,-26.44883124238036
-0.8921535522573122,4.259712472833163,12.58532115763305,3.8022529288516806,21.90492504515439,-27.948607501971132
-0.8495564275289805,4.478761723284707,12.623343686921567,3.5227668538319694,21.34096712913833,-29.508432497402968
