th1 (rad),w1 (rad/s),th2 (rad),w2 (rad/s),a1 (rad/s^2),a2 (rad/s^2)
2.0115382115345444,-0.2855322283460777,1.1506601405511654,-0.13265782145888907,-7.5855474401608545,-3.941849022353824
2.0086828892510837,-0.3613877027476863,1.1493335623365766,-0.17207631168242732,-7.624778629860736,-3.8650471249936564
2.005069012223607,-0.4376354890462936,1.1476127992197522,-0.21072678293236388,-7.673922153063917,-3.7691455867536363
2.000692657333144,-0.5143747105769327,1.1455055313904285,-0.24841823879990024,-7.732949626232318,-3.6539136037134923
1.9955489102273745,-0.591704206839256,1.1430213490024295,-0.28495737483703515,-7.801830316647926,-3.5190702256672486
1.989631868158982,-0.6697225100057352,1.1401717752540592,-0.32014807709370763,-7.880533732247291,-3.364285302388498
1.9829346430589245,-0.7485278473282082,1.1369702944831221,-0.3537909301175926,-7.969032707425871,-3.1891807166990787
1.9754493645856424,-0.8282181744024669,1.1334323851819461,-0.3856827372845834,-8.067306995827042,-2.993331981210671
1.9671671828416177,-0.9088912443607373,1.1295755578091002,-0.41561605709669014,-8.175347373095482,-2.776270298941736
1.9580782703980104,-0.9906447180916922,1.1254193972381334,-0.4433787600861075,-8.293160238292023,-2.537485218888184
1.9481718232170935,-1.0735763204746125,1.1209856096372723,-0.46875361227498935,-8.42077267987216,-2.2764280591126456
1.9374360600123472,-1.157784047273334,1.1162980735145225,-0.4915178928661158,-8.558237937750249,-1.992516326263616
1.925858219539614,-1.2433664266508366,1.1113828945858613,-0.511443056128752,-8.705641142829958,-1.6851394375091975
1.9134245552731055,-1.3304228380791363,1.1062684640245737,-0.5282944505038439,-8.863105143795874,-1.353666156745975
1.9001203268923141,-1.419053889517095,1.1009855195195353,-0.5418311120713036,-9.030796130196437,-0.9974543026943725
1.8859297879971433,-1.5093618508190594,1.0955672083988222,-0.5518056550982473,-9.208928620380224,-0.615863487243832
1.8708361694889526,-1.6014511370228617,1.0900491518478397,-0.5579642899706856,-9.397769188379756,-0.2082719187288773
1.854821658118724,-1.6954288289066592,1.0844695089481329,-0.5600470091579743,-9.597638036014883,0.22590131550683554
1.8378673698296575,-1.791405209266808,1.0788690388565532,-0.557787996002906,-9.808907149248363,0.6871665525999437
1.8199533177369893,-1.8894942807592916,1.0732911588965242,-0.5509163304769065,-10.031993276381415,1.1759237986963003
1.8010583749293965,-1.9898142135231058,1.0677819955917551,-0.5391570924899435,-10.267343284196478,1.6924093045441797
1.7811602327941654,-2.0924876463650706,1.0623904246668556,-0.5222329994445016,-10.51540852746864,2.2366235602113003
1.7602353563305146,-2.197641731639757,1.0571680946724107,-0.49986676384238865,-10.776603633331083,2.8082340564710173
1.738258939014117,-2.305407767973068,1.0521694270339867,-0.4717844232776785,-11.051243466742156,3.4064438632690694
1.7152048613343862,-2.4159202026404896,1.0474515828012099,-0.4377199846449878,-11.339449911249721,4.029814098741538
1.6910456593079812,-2.5293147017529867,1.04307438295476,-0.39742184365757244,-11.641017385827425,4.676024606540691
1.6657525122904513,-2.645724875611261,1.0391001645181843,-0.35066159759216553,-11.955222691710674,5.341552613586695
1.6392952635343387,-2.7652771025283673,1.0355935485422627,-0.29724607145629856,-12.280560947375612,6.0212440072822515
1.6116424925090551,-2.8880827120021233,1.0326210878276998,-0.23703363138347605,-12.614385424334744,6.70774680008706
1.582761665389034,-3.014226566245471,1.030250751513865,-0.16995616338260544,-12.952426015162894,7.390772844340457
1.5526193997265791,-3.1437508263971,1.028551189880039,-0.09604843493920087,-13.288160859889901,8.056154948896758
1.521181891462608,-3.276632434995999,1.027590705530647,-0.015486885450233287,-13.612022079906511,8.68467778665122
1.488415567112648,-3.4127526557950643,1.0274358366761447,0.07135989241627891,-13.910436038340054,9.250691757416872
1.4542880405546974,-3.551857016178465,1.0281494356003076,0.16386680999044761,-14.164741038617377,9.720583729321634
1.4187694703929128,-3.6935044265646386,1.0297881037002121,0.26107264728366397,-14.350104433506331,10.051296727471437
1.3818344261272664,-3.837005470899702,1.0323988301730487,0.36158561455837834,-14.434690987238428,10.18928221684377
1.3434643714182692,-3.981352380772086,1.0360146863186324,0.46347843672681605,-14.37952048361023,10.07054045728779
1.3036508476105484,-4.125147585608189,1.0406494706859004,0.5641838412996939,-14.139670733361003,9.622719682599568
1.2623993717544666,-4.2665442929417985,1.0462913090988974,0.6604110381256896,-13.667644044902785,8.77047379221025
1.2197339288250486,-4.403220733390826,1.0528954194801543,0.7481157760477921,-12.919634492526782,7.44514930060266
1.1757017214911403,-4.532417078316095,1.0603765772406322,0.8225672690538187,-11.864838927531398,5.598992460523571
1.1303775507079794,-4.651065467591408,1.0686022499311703,0.8785571936590544,-10.496637286984665,3.2221340935055003
1.0838668960320654,-4.7560318404612545,1.0773878218677608,0.9107785345941094,-8.842610820668694,0.3578884750310503
1.036306577627453,-4.844457948667942,1.086495607213702,0.9143574193444199,-6.9688953098005735,-2.8902677372969965
0.9878619981407735,-4.914146901765948,1.0956391814071462,0.88545474197145,-4.974792417261169,-6.366095349338224
0.938720529123114,-4.963894825938559,1.1044937288268608,0.8217937884780677,-2.9768485115854593,-9.883691183872969
0.8890815808637283,-4.993663311054414,1.1127116667116415,0.722956876639338,-1.0866388021500564,-13.260276398117945
0.8391449477531843,-5.004529699075914,1.119941235478035,0.5903541126581586,0.6099483755443118,-16.347372569055896
0.7890996507624252,-4.998430215320471,1.1258447766046165,0.42688038696759967,2.06483032352523,-19.04988185201128
0.7391153486092205,-4.977781912085218,1.1301135804742926,0.23638156844748687,3.2686678456085003,-21.32899272087526
0.6893375294883682,-4.945095233629133,1.1324773961587675,0.02309164123873428,4.243047702553317,-23.192108756219895
0.6398865771520769,-4.9026647566036,1.1327083125711548,-0.20882944632346467,5.028814342367358,-24.676742403525896
0.5908599295860408,-4.852376613179926,1.1306200181079202,-0.45559687035872365,5.67493459584351,-25.83474453346604
0.5423361634542416,-4.795627267221491,1.126064049404333,-0.713944315693384,6.230253577962135,-26.72042611106615
0.4943798907820267,-4.733324731441869,1.1189246062473992,-0.9811485768040455,6.7385876415420976,-27.383386416843837
0.44704664346760803,-4.6659388550264485,1.1091131204793587,-1.254982440972484,7.236521240264566,-27.865264334895063
0.40038725491734356,-4.593573642623803,1.0965632960696339,-1.5336350843214346,7.752967787880949,-28.199127673359197
0.3544515184911055,-4.516043964744994,1.0812269452264196,-1.8156263610550265,8.309676976763383,-28.410341064365678
0.3092910788436556,-4.43294719497736,1.0630706816158693,-2.099729771698683,8.922129195185066,-28.518091056146165
0.264961606893882,-4.3437259030255095,1.0420733838988825,-2.384910682260145,9.600496400297795,-28.537072199796444
0.2215243478636269,-4.247720939022532,1.018224277076281,-2.6702814042581093,10.350517928640643,-28.47907346034646
0.1790471384734016,-4.1442157597361255,0.9915214630336999,-2.955072138861574,11.174241118615544,-28.354348850173892
0.13760498087604034,-4.03247334854997,0.9619707416450842,-3.238615627363313,12.070628456781773,-28.172733521927185
0.09728024739054064,-3.9117670639821522,0.929584585371451,-3.520342962582585,13.036053306624831,-27.944501516502097
0.05816257675071912,-3.7814065309159037,0.8943811557456252,-3.799787977747606,14.064708116399713,-27.680972202508975
0.02034851144156008,-3.6407594497519065,0.8563832759681491,-4.076597699772695,15.148940151306775,-27.394870248468788
-0.016059083055958982,-3.4892700482388386,0.8156172989704221,-4.350546402257383,16.279514197025243,-27.10043416140253
-0.05095178353834737,-3.326474906268586,0.7721118349478483,-4.621550743871409,17.44578062921737,-26.813252358391765
-0.08421653260103323,-3.1520170999764123,0.7258963275091342,-4.889683267455327,18.635700166318596,-26.54978175369254
-0.11573670360079735,-2.965660098313226,0.676999494834581,-5.155181084992252,19.835641470732007,-26.326467824240687
-0.14539330458392963,-2.767303683605906,0.6254476839846584,-5.418445763234659,21.029821224203875,-26.15833080239156
-0.1730663414199887,-2.5570054713638672,0.5712632263523119,-5.680029071258574,22.19919432689348,-26.056802333037393
-0.19863639613362738,-2.3350135280949322,0.5144629356397261,-5.940597094588949,23.319521516040695,-26.02648386493695
-0.2219865314145767,-2.101818312934525,0.4550569646938366,-6.200861933238318,24.358246531673803,-26.060353478405105
-0.24300471454392195,-1.8582358476177872,0.39304834536145344,-6.46146546802237,25.269728627579823,-26.13279916679338
-0.2615870730200998,-1.605538561341989,0.32843369068122974,-6.722793459690304,25.988372945333204,-26.189798604007034
-0.2776424586335197,-1.345654831888657,0.2612057560843267,-6.984691445730374,26.419465819777766,-26.13584316404112
-0.2910990069524063,-1.0814601736908793,0.191358841627023,-7.246049877370785,26.428445644253518,-25.81834771510042
-0.3019136086893151,-0.8171757172483441,0.11889834285331514,-7.504233354521789,25.831604609144115,-25.01324034955954
-0.3100853658617985,-0.5588596711569029,0.04385600930809726,-7.754365758017384,24.395634156657298,-23.421346610453714
-0.31567396257336755,-0.31490332959032996,-0.033687648272076584,-7.988579224121921,21.8598832589476,-20.69403601686392
-0.3188229958692709,-0.09630449700085394,-0.11357344051329579,-8.19551958429056,17.999754616103363,-16.51320431081874
-0.3197860408392794,0.0836930491601797,-0.19552863635620138,-8.360651627398747,12.740686622406995,-10.739329527791769
-0.31894911034767764,0.21109991538424966,-0.27913515263018884,-8.468044922676665,6.293967491634333,-3.590614558363926
-0.31683811119383515,0.274039590300593,-0.3638156018569555,-8.503951068260305,-0.7746088983282589,4.2645390884164405
-0.3140977152908292,0.2662935013173104,-0.44885511253955857,-8.46130567737614,-7.648410972707237,11.8411536978385
-0.3114347802776561,0.18980939159023802,-0.53346816931332,-8.342894140397755,-13.534381311159615,18.19359086894908
-0.3095366863617537,0.05446557847864186,-0.6168971107172976,-8.160958231708264,-17.9415819501865,22.771024289546734
-0.3089920305769673,-0.12495024102322314,-0.6985066930343802,-7.933247988812797,-20.77837511874546,25.530001146045855
-0.31024153298719953,-0.33273399221067773,-0.7778391729225081,-7.677947977352338,-22.250761113875402,26.789194945770348
-0.3135688729093063,-0.5552416033494317,-0.8546186526960315,-7.410056027894635,-22.688531305778476,26.999018045878984
-0.3191212889428006,-0.7821269164072164,-0.928719212974978,-7.140065847435845,-22.413765702439964,26.575159281038648
-0.3269425581068728,-1.006264573431616,-1.0001198714493365,-6.8743142546254585,-21.681819164245418,25.83017388078009
-0.3370052038411889,-1.22308276507407,-1.068863013995591,-6.6160125158176575,-20.672816159651074,24.97008506353402
-0.3492360314919296,-1.429810926670581,-1.1350231391537675,-6.366311665182317,-19.50505191221005,24.117062138268746
-0.36353414075863544,-1.6248614457926815,-1.1986862558055906,-6.125141043799629,-18.252811645037614,23.335553204920142
-0.37978275521656224,-1.8073895622430576,-1.2599376662435868,-5.891785511750427,-16.961513527946867,22.653382972140463
-0.3978566508389928,-1.9770046975225262,-1.318855521361091,-5.665251682029023,-15.65862355257757,22.07648977613839
-0.4176266978142181,-2.133590933048302,-1.3755080381813813,-5.444486784267639,-14.360882890701088,21.598471299463984
-0.4389626071447011,-2.277199761955313,-1.4299529060240577,-5.228502071272999,-13.078849519713879,21.206504627618802
-0.4617346047642542,-2.407988257152452,-1.4822379267367876,-5.016437024996811,-11.819640852139596,20.88492024760031
-0.4858144873357787,-2.526184665673848,-1.5324022969867557,-4.807587822520808,-10.588525046107742,20.61731950412886
-0.5110763339925172,-2.6320699161349252,-1.5804781752119637,-4.601414627479519,-9.389796490559444,20.387807546041365
-0.5373970331538664,-2.72596788104052,-1.6264923214867588,-4.397536552019106,-8.22721680794181,20.18169395687532
-0.5646567119642717,-2.808240049119938,-1.67046768700695,-4.195719612450352,-7.104199692556132,19.985872249021956
-0.5927391124554711,-2.8792820460454993,-1.7124248831314535,-3.9958608899601327,-6.023851635937974,19.789002811197015
-0.621531932915926,-2.939520562404879,-1.7523834920310548,-3.7979708618481625,-4.988938590193683,19.5815722802075
-0.6509271385399749,-2.989409948306816,-1.7903632006495365,-3.6021551390460873,-4.0018219999312565,19.355872287093614
-0.6808212380230431,-3.0294281683061284,-1.8263847520399974,-3.408596416175151,-3.0643905962383737,19.105923497200493
-0.7111155197061043,-3.060072074268512,-1.8604707162017489,-3.217537181203146,-2.1780032777007126,18.827361463211307
-0.7417162404487895,-3.081852107045519,-1.8926460880137803,-3.029263566571033,-1.3434511055836282,18.517295762673957
-0.7725347615192447,-3.0952866181013556,-1.9229387236794906,-2.8440906089442937,-0.5609415906682812,18.174151221894512
-0.8034876277002583,-3.1008960340080383,-1.9513796297689334,-2.6623490967253485,0.16989475044193428,17.79749856688774
-0.8344965880403387,-3.099197086503619,-1.978003120736187,-2.484374111056471,0.8499776342266862,17.387880918159397
-0.8654885589053749,-3.090697310161352,-2.0028468618467516,-2.310495301874877,1.4807333128409925,16.946641796011303
-0.8963955320069884,-3.075889977032942,-2.0259518148655005,-2.141028883914764,2.064037794186072,16.47575955205849
-0.9271544317773178,-3.0552495990910815,-2.047362103704648,-1.976271288394179,2.6021509643276137,15.977692328823938
-0.9577069277682286,-3.0292280894478054,-2.06712481658859,-1.8164943651059398,3.0976454043790027,15.455236774447187
-0.9879992086627067,-2.9982516354040154,-2.0852897602396494,-1.661941997361468,3.5533332847030374,14.911402837171245
-1.0179817250167469,-2.962718302556985,-2.101909180213264,-1.5128279689897555,3.9721941824122355,14.349306078795722
-1.0476089080423168,-2.9229963607328626,-2.1170374599031616,-1.3693349082017983,4.357306076024257,13.772078120351539
-1.0768388716496453,-2.87942329997262,-2.1307308089851795,-1.231614126998283,4.711781180465508,13.182795100618858
-1.1056331046493715,-2.832305488167965,-2.1430469502551626,-1.0997861759920944,5.038707738342954,12.584423410558113
-1.1339561595310512,-2.7819184107845354,-2.1540448120150835,-0.9739419418865133,5.3410984078876576,11.979781473782475
-1.1617753436388967,-2.728507426705659,-2.1637842314339486,-0.8541441271486885,5.621845500631905,11.371515973673002
-1.1890604179059532,-2.6722889716993397,-2.1723256727054356,-0.7404289674119584,5.883683029072616,10.762090672257306
-1.2157833076229465,-2.6134521414086134,-2.179729962379555,-0.6328080606893853,6.129155324574739,10.153785809974922
-1.2419178290370327,-2.552160588162866,-2.186058042986449,-0.5312702025896361,6.360591870670329,9.548706002122314
-1.2674394349186615,-2.488554669456163,-2.1913707450123456,-0.43578314256841294,6.5800879543036705,8.948794540644855
-1.2923249816132232,-2.422753789913126,-2.1957285764380297,-0.3462951971619644,6.789490751972208,8.355852054972875
-1.3165525195123544,-2.3548588823934042,-2.1991915284096493,-0.26273667661223565,6.990390521716474,7.7715575725455714
-1.3401011083362884,-2.2849549771762394,-2.2018188951757716,-0.18502110088677992,7.184116647188684,7.197490142765396
-1.3629506581080508,-2.2131138107043524,-2.2036691061846394,-0.11304619945912596,7.37173835822068,6.635149345993815
-1.3850817962150943,-2.1393964271221457,-2.2047995681792307,-0.046694705999187805,7.5540700159699465,6.08597320399155
-1.4064757604863158,-2.0638557269624465,-2.205266515239223,0.014165026040727696,7.731680884380092,5.55135224408154
-1.4271143177559402,-1.9865389181186455,-2.2051248649788153,0.0696785484815431,7.904909301089762,5.032638750337125
-1.4469797069371266,-1.907489825107748,-2.204428079494,0.12000493598491435,8.073881102356633,4.5311505628083095
-1.4660546051882042,-1.8267510140841816,-2.203228030134151,0.16531644161299744,8.23853204618484,4.048169156761755
-1.484322115329046,-1.7443656936223333,-2.2015748657180207,0.205798133180615,8.398633820692233,3.5849321377021055
-1.5017657722652693,-1.660379355415411,-2.1995168843862145,0.24164745455763603,8.553823033178231,3.1426207060387497
-1.5183695658194234,-1.5748411250836285,-2.197100409840638,0.27307366161802354,8.703632368552931,2.7223430512741422
-1.5341179770702598,-1.4878048013980991,-2.194369673224458,0.30029709213076494,8.847522908247324,2.325114997131397
-1.5489960250842407,-1.3993295723156258,-2.1913667023031502,0.3235482421020789,8.984916439521157,1.9518395012338996
-1.562989320807397,-1.3094804079204143,-2.188131219882129,0.34306663711441787,9.115226486314802,1.603286783211481
-1.576084124886601,-1.2183281430572663,-2.184700553510985,0.3590995049465327,9.237886777597224,1.2800768884598899
-1.5882674063171738,-1.125949275281294,-2.1811095584615194,0.3719002738311316,9.352375950067618,0.9826663787231352
-1.5995268990699867,-1.032425515780618,-2.1773905557232083,0.38172693761836296,9.458237460371341,0.7113405785174031
-1.609851154227793,-0.9378431411769045,-2.1735732863470245,0.388840343403537,9.55509394683463,0.4662124182626913
-1.619229585639562,-0.8422922017085582,-2.169684882912989,0.3935024675861639,9.642655610163144,0.24722843586503226
-1.6276525076566475,-0.7458656456069268,-2.1657498582371275,0.39597475194481424,9.720722546509231,0.05418197393651111
-1.6351111641127167,-0.6486584201418345,-2.1617901107176793,0.39651657168417936,9.789181330890354,-0.11326691035404125
-1.641597748314135,-0.550766606832931,-2.1578249450008378,0.39538390258063894,9.84799648124617,-0.2555657744470718
-1.6471054143824644,-0.4522866420204693,-2.1538711059750315,0.39282824483616824,9.897197705993955,-0.37323968886436215
-1.651628280802669,-0.35331466496052977,-2.1499428235266698,0.3890958479475246,9.936864031965023,-0.46685829854217065
-1.6551614274522743,-0.25394602464087956,-2.1460518650471947,0.3844272649621029,9.967106016410282,-0.5370017779944672
-1.6577008876986832,-0.15427496447677674,-2.1422075923975736,0.3790572471821582,9.988047267556132,-0.5842274265399655
-1.659243637343451,-0.05439449180121542,-2.138417019925752,0.37321497291675854,9.999806442272089,-0.6090385579967834
-1.6597875822614632,0.04560357262150547,-2.1346848701965846,0.3671245873367907,10.002480771444082,-0.6118571626107516
-1.659331546535248,0.14562838033594627,-2.1310136243232165,0.3610060157106832,9.996132000631455,-0.5930015825852646
-1.6578752627318887,0.24558970034226082,-2.1274035641661095,0.3550759998848306,9.98077544210315,-0.5526701702499413
-1.6554193657284662,0.3453974547632923,-2.123852804167261,0.34954929818233116,9.956372628532563,-0.4909316093658748
-1.6519653911808332,0.4449611810486179,-2.1203573111854377,0.3446399820886724,9.922827849059408,-0.40772228943884553
-1.647515779370347,0.544189459539212,-2.116910911364551,0.34056275919428397,9.879988641968907,-0.30285083861088724
-1.642073884774955,0.6429893459589011,-2.113505283772608,0.3375342508081751,9.827650118692235,-0.17600964648821807
-1.635643991315366,0.7412658471458234,-2.1101299412645265,0.33577415434329294,9.765562803125569,-0.026792945112282578
-1.6282313328439078,0.8389214751770792,-2.1067721997210938,0.33550622489217014,9.69344348991073,0.1452792353954737
-1.619842118092137,0.9358559100761864,-2.103417137472172,0.33695901724612487,9.610988457832583,0.3407321581656119
-1.610483558991375,1.0319657946545122,-2.100047547299711,0.340366338827781,9.517888224485354,0.5601036588932332
-1.6001639010448299,1.1271446768993658,-2.096643883911433,0.34596737541671335,9.413842903119743,0.8039089451118119
-1.5888924542758363,1.2212831059305633,-2.093184210157266,0.3540064648678315,9.29857713189968,1.0726043963668055
-1.5766796232165305,1.31426887724956,-2.0896441455085877,0.36473250883149955,9.17185350107025,1.366551936690566
-1.5635369344440349,1.4059874122602627,-2.085996820420273,0.37839802819840523,9.033483416153139,1.6859855657587237
