th1 (rad),w1 (rad/s),th2 (rad),w2 (rad/s),a1 (rad/s^2),a2 (rad/s^2)
1.8114643818475047,-2.648408741450954,2.188830620471645,0.01742862449252808,-8.106511449951991,-3.0355598448275574
1.784980294432995,-2.7294738559504736,2.1890049067165704,-0.012926973955747493,-7.895677743077083,-3.6549997202889615
1.7576855558734903,-2.8084306333812443,2.188875636977013,-0.04947697115863711,-7.667617084614039,-4.317645965121796
1.7296012495396778,-2.8851068042273846,2.1883808672654266,-0.09265343080985508,-7.424803080078929,-5.01895700834141
1.700750181497404,-2.959354835028174,2.187454332957328,-0.14284300089326918,-7.169660411757405,-5.754028765405096
1.6711566331471222,-3.031051439145748,2.1860259029483955,-0.20038328854732013,-6.904395228705113,-6.517798791856205
1.6408461187556647,-3.100095391432799,2.1840220700629223,-0.2655612764658822,-6.630840384484839,-7.305231414572613
1.6098451648413368,-3.1664037952776476,2.1813664572982634,-0.33861359061160834,-6.350325508652052,-8.111469521585912
1.5781811268885604,-3.2299070503641683,2.1779803213921474,-0.41972828582746746,-6.063578376036911,-8.931943788720197
1.5458820563849187,-3.2905428341245373,2.173783038533873,-0.5090477237146694,-5.7706602731228624,-9.76243572549377
1.5129766280436734,-3.348249436855766,2.168692561296726,-0.6066720809696071,-5.470934680964835,-10.599096133272829
1.4794941336751157,-3.4029587836654143,2.16262584048703,-0.7126630423023355,-5.163066038878662,-11.438424735094774
1.4454645458384616,-3.454589444054201,2.1554992100640065,-0.8270472896532832,-4.845043823435243,-12.277219536202251
1.4109186513979197,-3.503039882288553,2.1472287371674734,-0.9498194850153058,-4.514226652000845,-13.112505893347606
1.3758882525750342,-3.5481821488085616,2.1377305423173203,-1.080944543948782,-4.167401417859956,-13.941455520270766
1.3404064310869486,-3.5898561629871613,2.1269210968778323,-1.2203590991514897,-3.800853320804147,-14.761305063439792
1.3045078694570769,-3.6278646961952026,2.1147175058863175,-1.3679721497858877,-3.4104437955460893,-15.56928279036831
1.2682292224951248,-3.6619691341506635,2.1010377843884585,-1.5236649776895708,-2.991694517597652,-16.362550634340455
1.2316095311536182,-3.69188607932664,2.085801134611563,-1.6872904840329754,-2.5398766981531966,-17.138167537955738
1.1946906703603517,-3.7172848463081722,2.0689282297712333,-1.8586721594125328,-2.050105645149527,-17.89307884254626
1.15751782189727,-3.7377859027596676,2.050341508177108,-2.0376029478379953,-1.5174410021777118,-18.624135407597777
1.1201399628696733,-3.7529603127814446,2.029965478698728,-2.223844301913973,-0.9369931596374744,-19.328145179032962
1.0826103597418588,-3.7623302443778193,2.007727035679588,-2.417125753704303,-0.30403607594835963,-20.00195898497228
1.0449870572980806,-3.765370605137303,1.9835557781425452,-2.617145343554026,0.3858738106915296,-20.642591332744143
1.0073333512467075,-3.7615118670303875,1.957384324707005,-2.8235712568814675,1.136773694935491,-21.24737582089871
0.9697182325764037,-3.7501441300810328,1.9291486121381904,-3.0360450150904548,1.9521675998330428,-21.814153383647593
0.9322167912755933,-3.7306224540827024,1.898788161987286,-3.254186548926931,2.8348996805236055,-22.34148988466623
0.8949105667347663,-3.7022734572774665,1.8662462964980167,-3.4776014477735933,3.7870314790542654,-22.82891751385782
0.8578878321619916,-3.6644031424869237,1.8314702820202806,-3.7058906229121713,4.80972740672388,-23.27719194969999
0.8212438007371223,-3.6163058684196847,1.7944113757911588,-3.9386625424091712,5.903152458879824,-23.688554228758928
0.7850807420529254,-3.5572743438308865,1.755024750367067,-4.175548084696761,7.066384753456366,-24.06698251651822
0.7495079986146166,-3.486610496296323,1.7132692695200995,-4.416217909861943,8.29734232670256,-24.418414115644556
0.7146418936516533,-3.4036370730292975,1.66910709042148,-4.660402051018388,9.592717873258678,-24.750911356227665
0.6806055229213603,-3.307709894296711,1.6225030699112961,-4.907911164580665,10.947905569716273,-25.074735189247843
0.6475284239783933,-3.198230838599548,1.5734239582654894,-5.158658516473143,12.356888983174876,-25.402275114277426
0.6155461155923978,-3.0746619487677993,1.521837373100758,-5.412681267615918,13.812035655953785,-25.747759804353795
0.5847994961047198,-2.9365415922082616,1.4677105604245988,-5.670158865659456,15.303708230319879,-26.126633496319705
0.5554340801826372,-2.783504509905063,1.4110089717680043,-5.931425200622653,16.819547941239232,-26.554419734696722
0.5275990350835865,-2.6153090304926705,1.351694719761778,-6.19696939796962,18.343205532174476,-27.044793090247154
0.5014459447786598,-2.4318769751709257,1.2897250257820816,-6.4674173288720915,19.852176653308558,-27.60642365279809
0.4771271750269505,-2.2333552086378403,1.2250508524933608,-6.743481565400073,21.31423450458286,-28.237930950175844
0.45479362294057213,-2.0202128635920116,1.15761603683936,-7.025860874901831,22.681746414408185,-28.919981297982446
0.434591494304652,-1.7933953994479297,1.0873574280903417,-7.3150606878816555,23.882965310296772,-29.60324319305636
0.4166575403101727,-1.554565746344962,1.0142068212115252,-7.611093119812219,24.809383439182714,-30.190807401350757
0.4011118828467231,-1.306471911953135,0.938095890013403,-7.9130011938257265,25.29890669061014,-30.514415164844195
0.3880471637271918,-1.0534828450470335,0.8589658780751457,-8.218145345474168,25.117013854730494,-30.30684803550629
0.37751233527672146,-0.8023127064997285,0.776784424620404,-8.52121382582923,23.944036059684038,-29.18063814168644
0.36948920821172415,-0.5628723459028881,0.6915722863621117,-8.813020207246094,21.38799006827342,-26.63840805062222
0.3638604847526953,-0.34899244522015394,0.6034420842896507,-9.079404287752316,17.05640867103906,-22.159437989277507
0.36037056030049375,-0.17842835850976335,0.5126480414121276,-9.300998667645091,10.720330607761273,-15.407874716605292
0.3585862767153961,-0.07122505243215062,0.4196380547356767,-9.455077414811145,2.552094163924948,-6.5404623233445225
0.3578740261910746,-0.04570411079290114,0.3250872805875653,-9.52048203804459,-6.701318658891556,3.5677489335176524
0.3574169850831456,-0.1127172973818167,0.22988246020711942,-9.484804548709413,-15.829892208712785,13.469887375714512
0.3562898121093275,-0.27101621946894455,0.13503441472002528,-9.350105674952268,-23.613506233458057,21.734672724735102
0.35357964991463803,-0.5071512818035251,0.0415333579705026,-9.132758947704916,-29.317851715388763,27.574067578285334
0.3485081370966028,-0.8003297989574127,-0.04979423150654656,-8.857018271922064,-32.855353224615186,31.019674192759364
0.34050483910702867,-1.1288833312035647,-0.1383644142257672,-8.54682152999447,-34.58283388609327,32.631687345180644
0.329216005794993,-1.4747116700644973,-0.2238326295257119,-8.220504656542662,-34.99955409029573,33.09973124539817
0.314468889094348,-1.8247072109674547,-0.3060376760911385,-7.88950734408868,-34.55062517846269,32.99836975464997
0.2962218169846735,-2.1702134627520815,-0.38493274953202533,-7.55952364654218,-33.56120437328604,32.71749573319428
0.2745196823571527,-2.5058255064849417,-0.46052798599744715,-7.232348689210237,-32.24443647737551,32.48515817905757
0.24946142729230325,-2.828269871258697,-0.5328514728895495,-6.907497107419662,-30.73235264587973,32.4150620907622
0.22117872857971627,-3.135593397717494,-0.6019264439637461,-6.58334648651204,-29.10555078628576,32.54869638192541
0.1898227946025413,-3.4266489055803517,-0.6677599088288665,-6.257859522692786,-27.414870638200814,32.88508311017659
0.1555563055467378,-3.70079761196236,-0.7303385040557944,-5.92900869159102,-25.69534244743523,33.39980537670908
0.1185483294271142,-3.9577510364367123,-0.7896285909717046,-5.595010637823929,-23.974452371749813,34.056677086885315
0.07897081906274708,-4.19749556015421,-0.8455786973499438,-5.254443866955076,-22.27664974963798,34.81484750823949
0.03699586346120498,-4.42026205765059,-0.8981231360194946,-4.906295391872681,-20.625492278106183,35.63319320172519
-0.007206757115300923,-4.626516980431652,-0.9471860899382214,-4.549963459855429,-19.044350780800816,36.473092762631104
-0.05347192691961744,-4.81696048823966,-0.9926857245367757,-4.185232532229119,-17.55626058967276,37.30017539288986
-0.10164153180201405,-4.992523094136388,-1.0345380498590668,-3.81223077830022,-16.183286530751502,38.08532564418301
-0.15156676274337794,-5.154355959443903,-1.072660357642069,-3.4313775218583897,-14.945621265877236,38.80504525673954
-0.20311032233781695,-5.303812172102675,-1.1069741328606528,-3.0433270692909944,-13.860528485021494,39.441165280210534
-0.2561484440588437,-5.44241745695289,-1.1374074035535628,-2.6489154164888893,-12.941150104970754,39.979829178274564
-0.3105726186283726,-5.571828958002597,-1.1638965577184517,-2.2491171247061437,-12.19510530324561,40.40960271784883
-0.3662909082083986,-5.693780011035053,-1.1863877289655131,-1.8450210975276553,-11.62270980771161,40.718489575858165
-0.42322870831874915,-5.81000710911217,-1.2048379399407898,-1.4378362017690738,-11.214533529446689,40.88953322529862
-0.48132877940987084,-5.9221524444066365,-1.2192163019584805,-1.0289408695160875,-10.947903072146797,40.89457649474398
-0.5405503038539372,-6.031631475128105,-1.2295057106536413,-0.6199951045686478,-10.781883103364846,40.685687576489904
-0.6008666186052183,-6.139450306161753,-1.2357056616993278,-0.21313822880374877,-10.65034735218883,40.183905341435924
-0.6622611216668358,-6.245953779683641,-1.2378370439873654,0.1887008246106105,-10.453228357695453,39.2656709170244
-0.7247206594636723,-6.350486063260596,-1.2359500357412592,0.5813575337808545,-10.047402231593605,37.74929035440667
-0.7882255200962782,-6.450960085576532,-1.2301364604034506,0.9588504373249211,-9.241646058336395,35.388033303422844
-0.8527351209520435,-6.543376546159896,-1.2205479560302013,1.3127307703591495,-7.805191060649901,31.88366720254116
-0.9181688864136425,-6.621428456766395,-1.2074206483266097,1.6315674423845612,-5.505078366877158,26.94212134580017
-0.9843831709813065,-6.6764792404351665,-1.1911049739027642,1.9009886558425628,-2.186819815819905,20.39150719028303
-1.0511479633856582,-6.698347438593365,-1.1720950873443385,2.104903727745393,2.1081827700387605,12.351982270467838
-1.1181314377715919,-6.677265610892977,-1.1510460500668847,2.2284235504500716,7.044043611563592,3.3763028045514254
-1.1849040938805215,-6.606825174777342,-1.128761814562384,2.262186578495586,12.009390583984368,-5.581744661362508
-1.2509723456282948,-6.486731268937498,-1.106139948777428,2.206369131881961,16.309080191006615,-13.450293177066575
-1.31583965831767,-6.323640467027432,-1.0840762574586083,2.071866200111295,19.436144013953864,-19.43964171152771
-1.3790760629879442,-6.129279026887893,-1.0633575954574952,1.8774697829960179,21.234665020377676,-23.284853701404327
-1.440368853256823,-5.916932376684116,-1.044582897627535,1.6446212459819747,21.861864114851617,-25.195161327863136
-1.4995381770236642,-5.6983137355356,-1.0281366851677154,1.3926696327033432,21.630927884714964,-25.62571552899414
-1.5565213143790202,-5.4820044566884505,-1.014209988840682,1.1364124774134017,20.86476847731274,-25.060771355712816
-1.6113413589459047,-5.273356771915323,-1.0028458640665479,0.8858047638562735,19.820214686850548,-23.897368179682648
-1.6640749266650579,-5.075154625046818,-0.9939878164279852,0.646831082059447,18.67208051093793,-22.416754068866396
-1.714826472915526,-4.888433819937439,-0.9875195056073907,0.422663541370783,17.526361567696977,-20.799959985797173
-1.7637108111149005,-4.713170204260469,-0.9832928701936828,0.21466394151281126,16.44050710206866,-19.15536958263087
-1.8108425131575052,-4.548765133239782,-0.9811462307785547,0.02311024568650258,15.441047099925337,-17.54361381757683
-1.856330164489903,-4.394354662240529,-0.9809151283216897,-0.15232589248926573,14.536213523335661,-15.995841301952536
-1.9002737111123083,-4.2489925270071724,-0.9824383872465824,-0.3122843055087911,13.724124561189763,-14.525839282089027
-1.94276363638238,-4.111751281395275,-0.9855612303016703,-0.4575426983296814,12.997780537873808,-13.137620456325742
-1.9838811491963326,-3.981773476016537,-0.9901366572849671,-0.5889189028929388,12.347982610572743,-11.829992587881026
-2.0236988839564978,-3.8582936499108094,-0.9960258463138966,-0.707218828771749,11.764970235101075,-10.59922769903415
-2.0622818204556057,-3.7406439475597986,-1.003098034601614,-0.8132111057620905,11.23929534701325,-9.440572983789565
-2.0996882599312037,-3.628250994089666,-1.011230145659235,-0.9076168355999862,10.762253459019318,-8.349071490746727
-2.1359707698721,-3.520628459499473,-1.0203063140152349,-0.9911075505074535,10.326063711321334,-7.319979295259693
-2.171177054467095,-3.4173678223862596,-1.0302173895203095,-1.0643073434600505,9.923910752902714,-6.348951756115287
-2.2053507326909574,-3.3181287148572323,-1.04086046295491,-1.1277968610212035,9.549913764525545,-5.432101512523382
-2.2385320198395298,-3.222629577211977,-1.052138431565122,-1.1821178761464373,9.199059832744801,-4.5659886313176505
-2.2707583156116495,-3.130638978884529,-1.0639596103265865,-1.2277777624596138,8.867122480990199,-3.7475779991722256
-2.302064705400495,-3.041967754074627,-1.0762373879511826,-1.265253542451336,8.550576687896875,-2.9741839586456806
-2.3324843829412414,-2.956461987195658,-1.088889923375696,-1.2949953820377929,8.24651631032524,-2.243413222071385
-2.362049002813198,-2.873996824092406,-1.1018398771960738,-1.3174295142585066,7.9525767809869725,-1.553111803395077
-2.390788971054122,-2.794471056282536,-1.1150141723386588,-1.3329606322924574,7.666864269294463,-0.9013186119227282
-2.4187336816169474,-2.7178024135895913,-1.1283437786615835,-1.3419738184116847,7.3878915942480425,-0.2862265725755923
-2.4459117057528434,-2.6439234976471107,-1.1417635168457003,-1.3448360841374407,7.114520719311396,0.2938488530010545
-2.4723509407293145,-2.572778290453997,-1.1552118776870748,-1.3418975956074302,6.845911444223214,0.8404943882595537
-2.4980787236338546,-2.504319176011765,-1.1686308536431491,-1.3334926517248347,6.581475824593066,1.3552177875160825
-2.5231219153939723,-2.4385044177658344,-1.1819657801603975,-1.3199404738496738,6.320837833136154,1.8394617588815558
-2.547506959571631,-2.3752960394344727,-1.1951651848988942,-1.3015458562608582,6.063797791297012,2.2946138952907447
-2.571259919965976,-2.3146580615215027,-1.2081806434615028,-1.2785997173079506,5.810301128033431,2.722013470856394
-2.594406500581191,-2.256555050241168,-1.2209666406345823,-1.2513795825993868,5.560411054240517,3.1229558609699404
-2.6169720510836028,-2.200950939698763,-1.233480436460576,-1.2201500239896874,5.314284772401309,3.498695236678678
-2.63898156048059,-2.14780809197475,-1.245681936700473,-1.1851630716229007,5.072152869989508,3.850446076496586
-2.6604596414003376,-2.0970865632748548,-1.257533567416702,-1.1466586108579349,4.834301571694136,4.179383937536792
-2.6814305070330864,-2.048743547557913,-1.2690001535252815,-1.104864771482567,4.601057550024863,4.486645835726457
-2.7019179425086657,-2.0027329720576645,-1.2800488012401072,-1.0599983131253023,4.3727750167877915,4.773330503298526
-2.7219452722292425,-1.9590052218897867,-1.2906487843713603,-1.012265008092317,4.1498248397489705,5.0404987211388415
-2.74153532444814,-1.917506973492297,-1.3007714344522836,-0.9618600208809286,3.9325854498577417,5.289173863646522
-2.760710394183063,-1.8781811189937194,-1.3103900346610928,-0.9089682822444634,3.721435324873065,5.520342743895226
-2.7794922053730002,-1.8409667657449889,-1.3194797174835375,-0.8537648548055111,3.5167468551852195,5.734956806198026
-2.79790187303045,-1.8057992971931367,-1.3280173660315926,-0.7964152867435309,3.318881417014526,5.933933680711323
-2.8159598660023817,-1.7726104830229914,-1.3359815188990278,-0.7370759499364177,3.128185496891404,6.118159089468475
-2.8336859708326116,-1.7413286280540774,-1.343352278398392,-0.6758943590417329,2.9449877292299296,6.288489074242577
-2.8510992571131526,-1.711878750761778,-1.3501112219888094,-0.6130094682993071,2.769596725735033,6.4457525029869185
-2.8682180446207703,-1.6841827835044278,-1.3562413166718024,-0.5485519432694379,2.6022995911669313,6.590753802452752
-2.8850598724558147,-1.6581597875927585,-1.3617268361044967,-0.48264440524491037,2.443361034474409,6.724275859180178
-2.901641470331742,-1.6337261772480145,-1.3665532801569458,-0.4154016466531086,2.2930229973723777,6.847083028723673
-2.9179787321042223,-1.6107959472742908,-1.3707072966234768,-0.34693081636587186,2.1515047339764726,6.959924193109153
-2.9340866915769652,-1.589280899934526,-1.3741766047871355,-0.27733157443478035,2.0190032850448403,7.06353580859069
-2.9499795005763105,-1.5690908670840775,-1.3769499205314832,-0.20669621634887345,1.8956942986682852,7.1586448893036225
-2.965670409247151,-1.5501339240973946,-1.379016882694972,-0.13510976745583722,1.7817331558734295,7.245971876959907
-2.981171748488125,-1.5323165925386604,-1.3803679803695303,-0.06265004868623815,1.6772563645582381,7.326233351894276
-2.996494914413512,-1.515544028893078,-1.3809944808563928,0.010612284832704613,1.582383188478034,7.400144546155789
-3.0116503547024425,-1.4997201970082976,-1.3808883580080658,0.0846137302942625,1.4972174796621842,7.468421624564022
-3.0266475566725255,-1.4847480222116758,-1.380042220705123,0.15929794653990273,1.421849682683097,7.531783704321592
-3.0414950368946423,-1.4705295253848447,-1.378449241239724,0.23461578358311863,1.3563589776220226,7.590954587488899
-3.0562003321484905,-1.4569659356086244,-1.3761030834038928,0.3105253294580076,1.3008155253553273,7.6466641829504605
-3.070769991504577,-1.4439577803550712,-1.3729978301093126,0.38699197128751217,1.2552827738538492,7.699649594967024
-3.0852095693081276,-1.4314049526165327,-1.3691279103964376,0.4639884672371824,1.2198197774215842,7.750655853498407
-3.0995236188342927,-1.4192067548423168,-1.3644880257240657,0.5414950257721665,1.1944834719962527,7.800436256623663
-3.113715686382716,-1.4072619201223544,-1.359073075466344,0.6194993883384031,1.1793308384941077,7.849752286926519
-3.1277883055839397,-1.3954686117374133,-1.35287808158296,0.6979969112076683,1.1744208722850795,7.899373050909412
-3.1417429917013138,-1.3837244030145626,-1.3458981124708833,0.7769906417167624,1.1798162596688753,7.9500741724852455
-3.1555802357314593,-1.3719262404178738,-1.3381282060537156,0.8564913834416148,1.1955846409555784,8.002636047363382
-3.169299498135638,-1.359970394008318,-1.3295632922192995,0.9365177439152486,1.2217993135081582,8.05784133351103
-3.1828992020757214,-1.3477524008732364,-1.320198114780147,1.017096157250359,1.2585391957332122,8.116471512440354
-3.196376726084454,-1.3351670089159042,-1.3100271532076433,1.0982608723747624,1.305887833125485,8.17930230521466
-3.2097283961736127,-1.3221081305846494,-1.2990445444838956,1.180053895426909,1.3639311784480581,8.24709766389224
-3.2229494774794594,-1.3084688188001687,-1.2872440055296266,1.2625248720658315,1.432753818089225,8.320601981479276
-3.236034165667461,-1.2941412806192765,-1.2746187568089682,1.3457308918806243,1.5124332435027064,8.400530068957549
-3.248975578473654,-1.2790169481842495,-1.261161447890162,1.4297361925702,1.6030316782221792,8.48755433406569
-3.2617657479554967,-1.2629866314020277,-1.24686408596446,1.5146117359108568,1.7045848651187836,8.582288460779024
-3.2743956142695168,-1.24594078275084,-1.2317179686053514,1.600434620518647,1.8170870935815358,8.685266728797638
-3.286855022097025,-1.2277699118150247,-1.215713622400165,1.6872872878066234,1.9404716012524323,8.796917927766946
-3.2991327212151753,-1.2083651958025003,-1.1988407495220987,1.775256467084293,2.0745853206070786,8.91753261233478
-3.3112163731732003,-1.1876193425964297,-1.1810881848512558,1.8644317932076409,2.219156760683788,9.047222215859891
-3.3230925665991644,-1.1654277749895918,-1.1624438669191794,1.9549040153662398,2.3737556269728692,9.185868302678202
-3.3347468443490604,-1.1416902187198632,-1.142894826765517,2.046762698393022,2.537742603568341,9.333060010306465
-3.3461637465362593,-1.1163127926841798,-1.122427199781587,2.1400932984960863,2.710207577910086,9.488017546403892
