th1 (rad),w1 (rad/s),th2 (rad),w2 (rad/s),a1 (rad/s^2),a2 (rad/s^2)
0.5918347775967359,1.4687889093598943,2.110843145256497,-2.6291121964410746,-1.7448137219307904,-10.469437736169674
0.6065226666903348,1.4513407721405864,2.0845520232920864,-2.7338065738027715,-1.3788181062735851,-10.50447577389376
0.6210360744117407,1.4375525910778506,2.0572139575540587,-2.838851331541709,-0.9995396876894519,-10.577038930635979
0.6354116003225192,1.4275571942009562,2.0288254442386418,-2.944621720848069,-0.6059678164933847,-10.688889246844923
0.6496871722645288,1.4214975160360224,1.9993792270301611,-3.051510613316518,-0.19701699072072743,-10.841901586811712
0.663902147424889,1.4195273461288151,1.968864120896996,-3.159929629184635,0.22842329546728762,-11.038041091939931
0.6780974208861771,1.421811579083488,1.9372648246051496,-3.270310040104034,0.6714146662006772,-11.279309241679359
0.692315536677012,1.4285257257454949,1.9045617242041093,-3.383103132520828,1.1328598201206148,-11.567643078377786
0.706600793934467,1.439854323946701,1.870730692878901,-3.4987795633046055,1.6133386911103118,-11.904744741411786
0.7209993371739339,1.455987710857804,1.835742897245855,-3.6178270107187234,2.1128653107415087,-12.291807763773676
0.735559214282512,1.4771163639652192,1.7995646271386676,-3.7407450883564604,2.6305288285266895,-12.729091416589748
0.7503303779221642,1.503421652250486,1.762157176255103,-3.868036002522358,3.163967048345402,-13.21527342535446
0.765364594444669,1.53506132273394,1.7234768162298792,-4.000188736775902,3.708601093104499,-13.74648362642701
0.7807152076720084,1.572147333664985,1.6834749288621202,-4.137653573040172,4.256535990344304,-14.31488706996476
0.7964366810086583,1.614712693568428,1.6420983931317186,-4.2808024437398196,4.79500780602083,-14.90664935702492
0.8125838079443426,1.6626627716286362,1.5992903686943203,-4.429868937310069,5.304244410813591,-15.49909402430656
0.8292104356606289,1.715705215736772,1.5549916793212195,-4.584859877553134,5.754629929940443,-16.05688628326589
0.8463674878179966,1.7732515150361765,1.5091430805456882,-4.745428740385793,6.103175826460935,-16.52722196396807
0.8641000029683584,1.8342832733007859,1.4616887931418303,-4.910700960025474,6.28960136456735,-16.834398105435373
0.8824428357013663,1.8971792869464594,1.4125817835415755,-5.079044941079827,6.232960039278793,-16.874995943779002
0.9014146285708309,1.9595088873392474,1.3617913341307772,-5.247794900517617,5.830869039083851,-16.516432616528256
0.9210097174442233,2.017817577730086,1.3093133851256011,-5.412959226682899,4.964974044839134,-15.60380032330151
0.9411878932215242,2.0674673181784775,1.2551837928587721,-5.568997229915914,3.5176388713291757,-13.9817985252347
0.9618625664033089,2.102643706891769,1.199493820559613,-5.708815215168261,1.404032471898981,-11.537495485127216
0.9828890034722266,2.116684031610759,1.1424056684079305,-5.824190170019533,-1.3823866002636311,-8.26125504598695
1.0040558437883342,2.102860165608123,1.084163766707735,-5.906802720479403,-4.726090358276696,-4.3052700509586215
1.0250844454444155,2.055599262025356,1.025095739502941,-5.94985542098899,-8.376123627050003,-0.0006101578938387783
1.045640438064669,1.971838025754856,0.965597185293051,-5.949861522567928,-11.989029311128682,4.202120582791045
1.0653588183222176,1.8519477326435692,0.9060985700673718,-5.9078403167400175,-15.222576962134477,7.860231831118902
1.0838782956486532,1.6997219630222244,0.8470201668999716,-5.8292379984288285,-17.834275159622777,10.671015796278605
1.1008755152788754,1.5213792114259967,0.7887277869156833,-5.722527840466043,-19.73113058532151,12.535785720185824
1.1160893073931353,1.3240679055727815,0.7315025085110229,-5.597169983264185,-20.95421165545959,13.535035393901586
1.129329986448863,1.1145257890181857,0.6755308086783811,-5.461819629325169,-21.62433793735597,13.852189160411458
1.140475244339045,0.8982824096446259,0.6209126123851294,-5.323297737721054,-21.88618510215942,13.69721635911719
1.1494580684354911,0.6794205586230317,0.5676796350079188,-5.186325574129882,-21.871690211767493,13.257931848175492
1.1562522740217214,0.46070365650535683,0.51581637926662,-5.053746255648128,-21.684502274262943,12.680425793559996
1.1608593105867748,0.2438586337627274,0.46527891671013877,-4.926941997712528,-21.398318223110792,12.068223403019072
1.163297896924402,0.029875451531619468,0.41600949673301346,-4.806259763682338,-21.061604803990615,11.489707928846197
1.1635966514397182,-0.1807405965082867,0.3679468990961901,-4.691362684393876,-20.70394063958489,10.987317733330991
1.1617892454746355,-0.3877800029041356,0.32103327225225137,-4.5814895070605655,-20.341767275229078,10.585606234137021
1.157911445445594,-0.5911976756564263,0.2752183771816457,-4.475633444719195,-19.98286850723195,10.297347636063714
1.1519994686890298,-0.7910263607287458,0.23046204273445375,-4.372659968358558,-19.629596720140867,10.127800749186388
1.1440892050817424,-0.9873223279301544,0.18673544305086817,-4.2713819608666945,-19.281097453757084,10.07753275537104
1.1342159818024409,-1.1801333024677252,0.14402162344220124,-4.1706066333129845,-18.934807299151753,10.144216323428724
1.1224146487777635,-1.3694813754592428,0.10231555710907139,-4.0691644700786975,-18.5874520632394,10.323734245874439
1.108719835023171,-1.5553558960916367,0.061623912408284416,-3.965927127619953,-18.235711529585217,10.610835308323919
1.0931662760622547,-1.7377130113874888,0.021964641132084885,-3.8598187745367136,-17.87666506784741,10.999509989498442
1.0757891459483797,-1.9164796620659628,-0.01663354661328225,-3.7498236746417293,-17.508093329306462,11.483199374042352
1.05662434932772,-2.0915605953590273,-0.054131783359699544,-3.634991680901306,-17.128683983215854,12.054912407693674
1.0357087433741299,-2.262847435191186,-0.0904817001687126,-3.514442556824369,-16.738171159125347,12.707300870364417
1.013080269022218,-2.4302291467824393,-0.1256261257369563,-3.387369548120725,-16.33742639815844,13.432724236793607
0.9887779775543937,-2.5936034107640236,-0.15949982121816356,-3.2530423057527886,-15.928511495291858,14.22332496848049
0.9628419434467534,-2.752888525716942,-0.19203024427569143,-3.1108090560679837,-15.514699210864189,15.071126672008315
0.935313058189584,-2.9080355178255837,-0.22313833483637127,-2.9600977893479006,-15.100465446972647,15.968161597488258
0.9062327030113282,-3.05904017229531,-0.2527393127298503,-2.800416173373018,-14.69145541600583,16.90662925025119
0.8756423012883751,-3.2059547264553685,-0.28074347446358044,-2.631349880870506,-14.294426041531224,17.879083876269053
0.8435827540238213,-3.348898986870681,-0.3070569732722855,-2.4525590421078154,-13.917166879387572,18.87864486273082
0.8100937641551145,-3.4880706556645564,-0.33158256369336364,-2.2637725934805073,-13.56840179749328,19.89922033828089
0.7752130575984689,-3.623754673639489,-0.3542202896281687,-2.0647803900976984,-13.257673023984996,20.935730079678574
0.738975510862074,-3.756331403879339,-0.3748680935291457,-1.8554230893009127,-12.995207355005817,21.984308664392554
0.7014121968232806,-3.8862834774293975,-0.3934223244221548,-1.635580002656987,-12.79176046249782,23.042462718148627
0.6625493620489866,-4.014201082054376,-0.4097781244487247,-1.4051553754755008,-12.65842811874013,24.109145534929333
0.6224073512284428,-4.140785363241777,-0.4238296782034797,-1.1640639201262075,-12.606400863084007,25.184695726703307
0.5809994975960251,-4.266849371872618,-0.4354703174047418,-0.9122169628591744,-12.64661822435856,26.270559739289187
0.5383310038772989,-4.393315554116203,-0.44459248703333354,-0.6495113654662825,-12.789245470298889,27.36867448917294
0.49439784833613687,-4.521208008819192,-0.45108760068799636,-0.3758246205745531,-13.042842915606148,28.48031599593321
0.4491857682479449,-4.651636437975253,-0.4548458468937419,-0.09102146061522104,-13.41301473123709,29.60410814703236
0.4026694038681924,-4.785766585287624,-0.4557560614998941,0.20501962085510256,-13.900197236762406,30.732713646649316
0.3548117380153161,-4.9247685576552485,-0.4537058652913431,0.5123467573215957,-14.496061758721556,31.847477968617827
0.3055640524387636,-5.069729175242464,-0.44858239771812713,0.8308215370077741,-15.177762424065971,32.909966374657216
0.25486676068633896,-5.221506799483124,-0.4402741823480494,1.1599212007543462,-15.899002486601672,33.84899541783475
0.2026516926915077,-5.380496824349141,-0.42867497034050595,1.4984111549326937,-16.576816040215977,34.5416919729157
0.1488467244480163,-5.546264984751301,-0.413690858791179,1.8438280746618507,-17.07360578427307,34.78808756015127
0.0933840746005033,-5.717001042594031,-0.3952525780445605,2.1917089502633633,-17.176570701886362,34.28251755671227
0.036214064174562986,-5.888766749612895,-0.37333548854192683,2.534534125830486,-16.58335326172621,32.59467899715746
-0.022673603321565962,-6.054600282230157,-0.347990147283622,2.8604809158020603,-14.915527840309995,29.191368116557083
-0.08321960614386753,-6.203755560633257,-0.3193853381256014,3.152394596967631,-11.796749320290235,23.55128859260237
-0.1452571617502001,-6.32172305383616,-0.2878613921559251,3.3879074828936546,-7.028367586649812,15.419031598705159
-0.20847439228856168,-6.392006729702658,-0.25398231732698856,3.542097798880706,-0.8290750844601854,5.149279391555127
-0.2723944595855883,-6.40029748054726,-0.2185613393381815,3.5935905927962573,6.029695257350035,-6.100215911608916
-0.33639743439106085,-6.34000052797376,-0.18262543341021892,3.5325884336801683,12.415060161916093,-16.645398347615213
-0.39979743967079845,-6.215849926354599,-0.14729954907341725,3.366134450204016,17.3315620707847,-24.996056739240366
-0.46195593893434445,-6.042534305646752,-0.11363820457137708,3.1161738828116126,20.348842317448018,-30.477842678239313
-0.522381281990812,-5.839045882472272,-0.08247646574326095,2.8113954560292194,21.62917988124345,-33.28179846404756
-0.5807717408155347,-5.622754083659837,-0.054362511182968754,2.4785774713887436,21.649134789922392,-34.07028312399427
-0.636999281652133,-5.406262735760613,-0.029576736469081318,2.1378746401488007,20.91348638950954,-33.56449338179088
-0.6910619090097392,-5.197127871865518,-0.008197990067593312,1.8022297063308919,19.81250930461013,-32.333451293478866
-0.7430331877283943,-4.999002778819416,0.009824306995715609,1.4788951933961032,18.59927252594638,-30.755226246183863
-0.7930232155165885,-4.813010053559952,0.02461325892967664,1.1713429309342644,17.41852343604459,-29.054180603964156
-0.841153316052188,-4.638824819199506,0.036326688239019286,0.8808011248946228,16.343473806103766,-27.351588411804517
-0.8875415642441831,-4.475390081138468,0.045134699487965516,0.6072852407765776,15.404658612112765,-25.706244389699233
-0.9322954650555677,-4.321343495017341,0.05120755189573129,0.3502227968795853,14.608908978687543,-24.141614125325013
-0.9755089000057411,-4.175254405230465,0.054709779864527144,0.10880665562633515,13.950747872512412,-22.66242137328644
-1.0172614440580456,-4.0357469265053405,0.0557978464207905,-0.11781755810652925,13.41886661382376,-21.26426030176216
-1.057618913323099,-3.901558260367103,0.05461967083972521,-0.3304601611241509,12.999655601112424,-19.938957249796783
-1.0966344959267702,-3.771561704355979,0.0513150692284837,-0.5298497336221187,12.67905129907886,-18.677450271324517
-1.13435011297033,-3.6447711913651903,0.04601657189226251,-0.7166242363353639,12.443451616502985,-17.47125486712858
-1.1707978248839819,-3.5203366752001606,0.03885032952890888,-0.8913367850066497,12.280130856340872,-16.313138358527056
-1.2060011916359834,-3.397535366636752,0.029936961678842383,-1.0544681685919202,12.177395287405409,-15.197358629594499
-1.239976545302351,-3.275761413762698,0.01939227999292318,-1.2064417548878652,12.12461123635904,-14.119668469306612
-1.272734159439978,-3.1545153013991074,0.007327862444044528,-1.3476384395809313,12.112176056574928,-13.077198761911246
-1.3042793124539689,-3.0333935408333583,-0.006148521951764786,-1.4784104272000438,12.131468072713847,-12.068284121804654
-1.3346132478623025,-2.9120788601062197,-0.020932626223765224,-1.5990932684180903,12.174792787228565,-11.092266677987404
-1.3637340364633648,-2.790330932233934,-0.03692355890794613,-1.7100159351979642,12.235332515980904,-10.149298065566256
-1.391637345785704,-2.667977607074125,-0.054023718259925774,-1.8115089158536268,12.30710137927892,-9.24015087739893
-1.4183171218564454,-2.5449065932813357,-0.07213880741846204,-1.9039104246276162,12.38490505944956,-8.366045825529406
-1.4437661877892587,-2.42105754268684,-0.09117791166473821,-1.9875708828829102,12.464303728685074,-7.528497956429683
-1.4679767632161271,-2.2964145053999894,-0.11105362049356732,-2.062855862447207,12.541576358126505,-6.7291835109070215
-1.490940908270127,-2.170998741818724,-0.1316821791180394,-2.130147697556277,12.613684843489834,-5.969827901052664
-1.5126508956883142,-2.044861893383826,-0.15298365609360218,-2.189845976566804,12.678236794695165,-5.252114514953223
-1.5330995146221524,-1.9180795254368743,-0.17488211585927022,-2.2423671217163363,12.733446304622692,-4.57761351038086
-1.5522803098765212,-1.7907450623906473,-0.1973057870764336,-2.288143256820145,12.77809246003178,-3.9477293489386094
-1.5701877605004277,-1.6629641377903295,-0.22018721964463506,-2.327620550309531,12.811475744936736,-3.3636655174831747
-1.586817401878331,-1.5348493803409622,-0.24346342514773037,-2.3612572054843626,12.83337279364273,-2.826404667643577
-1.6021658956817406,-1.4065156524045348,-0.267075997202574,-2.3895212521607982,12.843990170878191,-2.3367022680213965
-1.616231052205786,-1.278075750695753,-0.290971209724182,-2.4128882748410123,12.843917992145837,-1.8950918002601702
-1.6290118097127435,-1.1496365707742946,-0.31510009247259213,-2.431839192843614,12.834084255902924,-1.5018995319132782
-1.6405081754204864,-1.0212957282152653,-0.3394184844010283,-2.446858188162747,12.815710750754269,-1.157266956395939
-1.650721132702639,-0.8931386207077225,-0.36388706628265577,-2.4584308577267064,12.79027133699175,-0.8611790917016618
-1.6596525189097162,-0.765235907337805,-0.38847137485992284,-2.467042648643723,12.759453293869598,-0.6134969615246723
-1.6673048779830943,-0.637641374399109,-0.4131418013463601,-2.4731776182589695,12.72512228196732,-0.41399272981513063
-1.6736812917270854,-0.5103901515794358,-0.4378735775289498,-2.477317545557121,12.68929130150152,-0.26238610587151084
-1.6787851932428797,-0.3834972385644206,-0.462646752984521,-2.4799414066158363,12.654093836786714,-0.15838076330093126
-1.6826201656285238,-0.25695630019655347,-0.4874461670506794,-2.4815252142488458,12.621761164090199,-0.10169960151153051
-1.6851897286304893,-0.1307386885556515,-0.5122614191931678,-2.482542210263961,12.594603559123586,-0.09211769799589957
-1.6864971155160458,-0.004792652964415639,-0.5370868412958074,-2.48346338724392,12.574994858412726,-0.12949172273853796
-1.68654504204569,0.12095729561971164,-0.5619214751682466,-2.4847583044713053,12.565359483509152,-0.21378437269956546
-1.6853354690894928,0.24661089045480317,-0.5867690582129597,-2.486896148198301,12.56816059386694,-0.3450819807726221
-1.6828693601849447,0.37229249639347256,-0.6116380196949427,-2.490346968006027,12.585887442156462,-0.5236027859169287
-1.67914643522101,0.4981513708150372,-0.636541489375003,-2.4955829958651963,12.621039191564384,-0.7496923163375832
-1.6741649215128596,0.624361762730681,-0.661497319333655,-2.503079919028572,12.676101315163471,-1.023800792198576
-1.6679213038855527,0.7511227758823157,-0.6865281185239407,-2.513317926950558,12.753509090321282,-1.3464352004420501
-1.6604100761267295,0.8786578667855285,-0.7116612977934462,-2.5267822789549785,12.855590434042886,-1.7180754638984208
-1.6516234974588742,1.0072137711259574,-0.736929120582996,-2.543963033593963,12.98447714708379,-2.139039569238997
-1.6415513597476146,1.1370585425967954,-0.7623687509189356,-2.5653534292863527,13.141969236047913,-2.6092761999662675
-1.6301807743216465,1.2684782349572745,-0.7880222852117992,-2.5914461912860154,13.329331020635891,-3.128054861292985
-1.6174959919720737,1.4017715451636334,-0.8139367471246594,-2.6227267398989453,13.546989915486508,-3.6935122757276644
-1.6034782765204374,1.5372414443184985,-0.8401640145236489,-2.659661862656222,13.794099069222424,-4.3019999321849545
-1.5881058620772524,1.6751824350107227,-0.8667606331502111,-2.7026818619780713,14.067914125918218,-4.947162060174482
-1.571354037727145,1.8158615762699049,-0.8937874517699919,-2.752153482579816,14.362924539899277,-5.618659240699661
-1.5531954219644462,1.9594908216688975,-0.92130898659579,-2.8083400749868126,14.66967669157569,-6.300448272328366
-1.533600513747757,2.1061875885846546,-0.9493923873456581,-2.8713445577100964,14.973241124630633,-6.968550269905855
-1.5125386378619106,2.2559199998309607,-0.9781058329227591,-2.941030060409155,15.251331131738961,-7.588316933915948
-1.4899794378636009,2.4084333111483502,-1.0075161335268505,-3.0169132297483143,15.47221015674663,-8.111389932454745
-1.4658951047521174,2.5631554127158167,-1.0376852658243336,-3.098027129072862,15.592779803718754,-8.472909744760948
-1.4402635506249593,2.7190832107530043,-1.0686655371150622,-3.182756226520471,15.55766342669536,-8.590132166845132
-1.4130727185174292,2.874659845019958,-1.1004930993802668,-3.2686575481889224,15.300677137840834,-8.364432622923584
-1.3843261200672297,3.027666616398366,-1.133179674862156,-3.352301874418158,14.75061716344144,-7.689448303639737
-1.354049453903246,3.1751727880327807,-1.1667026936063376,-3.4291963574545554,13.843259825833298,-6.468077384115391
-1.322297726022918,3.3136053862911137,-1.2009946571808832,-3.4938771312957093,12.539978252706979,-4.638962704238869
-1.289161672160007,3.4390051688181833,-1.2359334284938404,-3.540266758338098,10.849692099136941,-2.2078833827872004
-1.254771620471825,3.547502089809553,-1.2713360960772213,-3.56234559216597,8.845754417561013,0.7277691668744011
-1.2192965995737295,3.6359596339851628,-1.306959551998881,-3.5550679004972263,6.666445249312326,3.977477453183687
-1.182937003233878,3.702624086478286,-1.3425102310038532,-3.5152931259653895,4.49200095729745,7.289199658492713
-1.1459107623690952,3.7475440960512607,-1.3776631622635072,-3.442401129380462,2.503321357797051,10.407093272256066
-1.1084353214085825,3.772577309629231,-1.4120871735573117,-3.3383301966579015,0.8396868378000518,13.131131609170874
-1.0707095483122901,3.7809741780072317,-1.4454704755238907,-3.207018880566193,-0.42600768421714885,15.35254508184066
-1.032899806532218,3.77671410116506,-1.4775406643295528,-3.0534934297477863,-1.2873928190558341,17.05487257820082
-0.9951326655205673,3.7638401729745015,-1.5080755986270307,-2.8829447039657783,-1.7867535010850515,18.289650936192377
-0.9574942637908224,3.745972637963651,-1.5369050456666884,-2.7000481946038546,-1.9915681682381945,19.144012527058862
-0.9200345374111859,3.726056956281269,-1.563905527612727,-2.508608069333266,-1.974986839780072,19.713526284773575
-0.8827739678483733,3.7063070878834683,-1.5889916083060596,-2.31147280648553,-1.8038238462519847,20.085353154273353
-0.8457108969695386,3.6882688494209486,-1.612106336370915,-2.1106192749427968,-1.533323831500852,20.3307610196766
-0.8088282084753291,3.67293561110594,-1.633212529120343,-1.9073116647460306,-1.2063625675837126,20.50379470958208
-0.7720988523642697,3.6608719854301026,-1.6522856457678032,-1.7022737176502098,-0.854887299057781,20.643073593880725
-0.7354901325099686,3.652323112439525,-1.6693083829443054,-1.4958429817114025,-0.5021305909221061,20.77468955445634
-0.6989669013855734,3.6473018065303036,-1.6842668127614193,-1.2880960861668391,-0.16481646992870555,20.915123144184673
-0.6624938833202704,3.6456536418310166,-1.6971477736230878,-1.0789448547249925,0.1449671891174001,21.073725675113824
-0.6260373469019602,3.6471033137221904,-1.7079372221703377,-0.8682075979738542,0.41830931995545206,21.254657512850045
-0.5895663137647383,3.651286406921745,-1.7166192981500763,-0.6556610228453537,0.6483978814015109,21.458327466591797
-0.5530534496955208,3.65777038573576,-1.7231759083785299,-0.4410777481794357,0.8297552776824572,21.682430447495403
