th1 (rad),w1 (rad/s),th2 (rad),w2 (rad/s)
2.6936652349401458,1.783588321787869,0.38541011678156906,-1.349346615176783
2.7115011181580244,1.7142644641569316,0.3719166506298012,-1.4092561499606917
2.7286437627995936,1.6443236229989457,0.3578240891301943,-1.4723748813742719
2.745086999029583,1.573722055272518,0.3431003403164516,-1.53850861333411
2.7608242195823083,1.5024343086893344,0.3277152541831105,-1.6074471110925515
2.7758485626692018,1.4304560299679216,0.31164078307218496,-1.6789601558877802
2.790153122968881,1.3578070873964019,0.29485118151330714,-1.752793360175798
2.803731193842845,1.2845349479128485,0.27732324791154916,-1.8286638128907218
2.816576543321973,1.2107182195043118,0.2590366097826419,-1.9062556621127156
2.828683725517016,1.136470233944148,0.23997405316151477,-1.9852157872825629
2.8400484278564577,1.0619425033559793,0.22012189528868914,-2.0651497638052136
2.8506678528900173,0.9873278384383299,0.199470397650637,-2.1456183774128474
2.8605411312744007,0.9128628693707816,0.17801421387650854,-2.226135000272494
2.8696697599681085,0.8388296670453439,0.1557528638737836,-2.306164189839835
2.878058056638562,0.7655561287103375,0.13269122197538524,-2.385121907098211
2.8857136179256653,0.6934147764483958,0.10884000290440313,-2.462377763378837
2.8926477656901493,0.6228196283742392,0.08421622527061476,-2.5372596834952943
2.8988759619738915,0.5542208503773138,0.058843628435661814,-2.609061306604562
2.9044181704776646,0.4880969884275549,0.032753015369616195,-2.6770523263546044
2.90929914036194,0.4249447219137794,0.005982492106070152,-2.740491794656113
2.913548587581078,0.36526626497819464,-0.021422425840490977,-2.7986441827202744
2.91720125023086,0.30955476477286353,-0.04940886766769372,-2.8507977229211705
2.9202967978785885,0.25827828297857824,-0.07791684489690542,-2.896284270939424
2.9228795807083743,0.21186317110216135,-0.10687968760629966,-2.934499664971327
2.924998212419396,0.1706778268093215,-0.13622468425601295,-2.9649233589520905
2.926704990687489,0.13501791372206137,-0.16587391784553385,-2.987136010164486
2.9280551698247095,0.10509411377668687,-0.19574527794717872,-3.0008337390350497
2.9291061109624765,0.08102334675335926,-0.22575361533752922,-3.0058379630427403
2.9299163444300103,0.06282414256443984,-0.25581199496795665,-3.002100026502929
2.9305445858556545,0.05041651521626367,-0.28583299523298594,-2.989700268267893
2.931048751007817,0.043626306394139995,-0.31572999791566486,-2.9688416357488285
2.9314850140717583,0.04219359314933946,-0.3454184142731531,-2.9398384028533577
2.9319069500032517,0.045784438142830494,-0.3748167983016867,-2.903100921839563
2.93236479438468,0.05400504073175993,-0.4038478075200823,-2.8591175902952197
2.9329048447919974,0.06641724314166356,-0.4324389834230345,-2.808435322700948
2.933569017223414,0.08255435819385624,-0.46052333665004397,-2.7516397839984323
2.9343945608053525,0.1019363961713199,-0.4880397344900283,-2.689336493629208
2.9354139247670656,0.12408394937135173,-0.5149330994263204,-2.6221336792252257
2.936654764260779,0.14853021016766046,-0.5411544362185726,-2.5506274905711943
2.9381400663624557,0.17483082044872283,-0.5666607111242845,-2.4753899143942157
2.939888374566943,0.2025714521457871,-0.5914146102682267,-2.3969594882168472
2.941914089088401,0.23137318398650225,-0.6153842051503952,-2.31583471536155
2.944227820928266,0.2608958611356078,-0.6385425523040107,-2.2324699410877282
2.946836779539622,0.2908397018151852,-0.660867251714888,-2.1472733610667754
2.949745176557774,0.32094545321720797,-0.6823399853255557,-2.0606067914050636
2.9529546310899457,0.3509934057331059,-0.7029460532396063,-1.9727868245548252
2.956464565147277,0.38080155834498375,-0.7226739214851546,-1.8840870172006585
2.960272580730727,0.4102231971222033,-0.7415147916571612,-1.7947407947806566
2.9643748127019487,0.43914411007130766,-0.7594621996049677,-1.7049448045063411
2.9687662538026616,0.4674796204421682,-0.7765116476500311,-1.614862498342659
2.973441050007083,0.4951715807574223,-0.7926602726334577,-1.5246277750676547
2.9783927658146574,0.5221854336681723,-0.8079065503841343,-1.4343485535760607
2.983614620151339,0.5485074144929031,-0.8222500359198949,-1.344110186653346
2.989099694296268,0.5741419443946709,-0.8356911377864283,-1.2539786551064966
2.9948411137402147,0.5991092424666948,-0.8482309243374933,-1.164003506605509
3.0008322061648816,0.6234431690665562,-0.8598709594035483,-1.074220522450671
3.007066637855547,0.6471893009318952,-0.870613164628055,-0.9846541095049568
3.013538530864866,0.6704032302380065,-0.8804597057231046,-0.8953194245408463
3.020242563167246,0.6931490741510328,-0.889412899968513,-0.8062242450382852
3.027174053908756,0.7154981779820347,-0.8974751424188959,-0.717370604748878
3.0343290356885766,0.7375279932316404,-0.9046488484663847,-0.6287562147242137
3.041704315620893,0.7593211111945357,-0.9109364106136268,-0.5403756915019741
3.0492975267328384,0.7809644330142418,-0.9163401675286466,-0.4522216141608857
3.057107171062981,0.8025484578636474,-0.9208623836702554,-0.3642854313142334
3.065132655641617,0.824166672062862,-0.9245052379833978,-0.27655823805499147
3.0733743223622456,0.845915023274322,-0.9272708203639477,-0.18903144157408225
3.081833472594989,0.8678914653204131,-0.9291611347796885,-0.10169733277661853
3.090512387248193,0.890195560570176,-0.9301781081074547,-0.014549579809170085
3.099414342853895,0.9129281281843917,-0.9303236039055465,0.07241634195658257
3.1085436241357387,0.9361909277579747,-0.9295994404859806,0.15920277022579987
3.1179055334133183,0.9600863690355345,-0.9280074127837227,0.2458095142979827
3.127506397103674,0.9847172393914521,-0.9255493176407429,0.3322335408117927
3.1373535694975883,1.0101864416589699,-0.922226982232625,0.41846867670672655
3.147455433914178,1.0365967356682673,-0.9180422954655577,0.5045053202729475
3.1578214012708603,1.0640504775198367,-0.9129972422628282,0.5903301519584565
3.168461906046059,1.0926493511879432,-0.9070939407432437,0.6759258373314381
3.179388399557938,1.122494087532686,-0.9003346823699293,0.7612707152712319
3.190613340433265,1.1536841662126849,-0.892721975217217,0.8463384651009765
3.2021501820953917,1.1863174963491403,-0.8842585905662071,0.9310977469958871
3.214013357058883,1.2204900721122325,-0.8749476130962482,1.0155118106207122
3.226218257780005,1.2562955996993515,-0.8647924949900411,1.0995380675853075
3.2387812137769987,1.2938250924688808,-0.853797114314188,1.1831276239752009
3.2517194647016874,1.3331664313009413,-0.841965838074436,1.2662247699307425
3.265051129014697,1.374403887595723,-0.8293035903751286,1.348766424029437
3.278795167890654,1.4176176067089694,-0.8158159261348342,1.4306815310860224
3.2929713439577437,1.4628830500809542,-0.801509110823974,1.5118904129373114
3.3076001744585533,1.5102703948576586,-0.7863902066946009,1.5923040728359124
3.3227028784071297,1.5598438904478658,-0.7704671659662418,1.6718234552491116
3.3383013173116085,1.611661172223496,-0.7537489314137507,1.7503386641547678
3.3544179290338434,1.6657725334671234,-0.7362455447722029,1.8277281443508704
3.3710756543685148,1.7222201577126564,-0.7179682633286942,1.9038578318524546
3.388297855945641,1.7810373148226089,-0.6989296850101697,1.9785802811386841
3.406108229093867,1.8422475255054518,-0.6791438821987829,2.051733778830581
3.4245307043489217,1.9058637005033954,-0.6586265444104771,2.1231414553192285
3.4435893413539556,1.9718872623757897,-0.6373951298572847,2.1926104079152067
3.4633082139777134,2.040307259664556,-0.6154690257781327,2.2599308512396754
3.483711286574359,2.1110994852518252,-0.5928697172657359,2.3248753128109496
3.5048222814268772,2.18422561290112,-0.5696209641376264,2.3871978940812864
3.5266645375558885,2.2596323683065895,-0.5457489851968136,2.4466336195301026
3.5492608612389542,2.337250753455761,-0.5212826490015126,2.5028978988050854
3.572633368773512,2.416995345738071,-0.4962536700134617,2.555686129304455
3.5968033222308926,2.4987636960052444,-0.4706968087204172,2.604673468993044
3.621790959190945,2.582435852714461,-0.44465007403048673,2.649514811617453
3.6476153177180897,2.6678740423662,-0.4181549259143122,2.6898449987950244
3.6742940581417516,2.754922539687513,-0.3912564759263619,2.7252793056392655
3.7018432835386266,2.8434077643992683,-0.36400368286996926,2.755414238554862
3.7302773611826194,2.933138644911532,-0.33644954048442066,2.779828685435636
3.759608747631735,3.023907292845581,-0.3086512536300643,2.798085459493418
3.7898478205601904,3.1154900357571935,-0.28067039903513014,2.809733277988301
3.8210027209177624,3.20764885862586,-0.2525730662552471,2.8143092157331253
3.853079209504021,3.300133307265799,-0.22442997409791587,2.8113416697507114
3.886080542576679,3.3926829083691383,-0.19631655740040876,2.8003538650286446
3.9200073716603705,3.4850301608345924,-0.1683130187501223,2.780867920915771
3.9548576732687164,3.5769041506601646,-0.14050433954096458,2.752409482155206
3.990626714775318,3.668034836179886,-0.11298024471941252,2.714512896586278
4.027307063137116,3.758158040963831,-0.08583511575354974,2.666726891949458
4.064888643546754,3.8470211775188123,-0.059167846834055154,2.608620665994387
4.103358855321942,3.9343897055058084,-0.03308164017411128,2.5397902566844053
4.142702752377001,4.020054303458886,-0.007683737607267229,2.4598650029174176
4.182903295411589,4.103838703566726,0.016914912421906948,2.368513842080968
4.223941682447256,4.18560810651306,0.04060005084271663,2.265451121444423
4.265797763512387,4.26527806035914,0.06325456205716086,2.1504415297800823
4.308450544115978,4.342823657940154,0.08475897735496168,2.023303688934001
4.35187878069538,4.418288886409678,0.10499201424430168,1.8839118885161241
4.396061669559477,4.491795956557092,0.12383113312946292,1.7321954068430347
4.440979629125048,4.563554455019008,0.14115308719789327,1.568134843266695
4.486615173675237,4.63387020604567,0.1568344356305602,1.3917548943337517
4.532953875735694,4.703153806695289,0.17075198457389773,1.2031130383843962
4.579985413802647,4.771928914194465,0.1827831149577417,1.0022836446938426
4.627704702944592,4.84084051853506,0.19280595140468013,0.7893370826385714
4.676113108129942,4.910663626683819,0.20069932223106585,0.5643134562249181
4.725219744396781,4.982313014562713,0.20634245679331503,0.32719060734350713
4.775042874542408,5.056854965296129,0.20961436286675011,0.07784599255769231
4.82561142419537,5.135522202090227,0.21039282279232704,-0.18398807985858
4.876966646216272,5.219733534197072,0.20855294199374125,-0.45877657770238767
4.929163981558243,5.311120049973881,0.20396517621671736,-0.7472422610556032
4.982275182057982,5.411559975812092,0.19649275360616134,-1.0504359441866218
5.0363907818161024,5.523224482589471,0.1859883941642951,-1.3698180838503635
5.091623026641997,5.6486365418361,0.17229021332579147,-1.7073530440288451
5.148109392060358,5.790743898514868,0.15521668288550303,-2.0656159308435784
5.206016831045507,5.953004171644745,0.13456052357706724,-2.447907508859063
5.265546872761955,6.139472419767324,0.11008144848847662,-2.8583616740986653
5.326941596959628,6.354863484929859,0.08149783174748997,-3.302004133317911
5.3904902318089265,6.6045205943323895,0.048477790414310856,-3.7846627351757522
5.45653543775225,6.894131722865746,0.01063116306255333,-4.312502300710316
5.525476754980907,7.228844184206687,-0.03249385994454983,-4.890687061047837
5.597765196822975,7.611050966069659,-0.0814007305550282,-5.520143628381841
5.673875706483671,8.035502044268695,-0.1366021668388466,-6.190529292664474
5.754230726926358,8.479896610622282,-0.19850745976549133,-6.8668286411737345
5.839029693032581,8.890942028328805,-0.26717574617722867,-7.469628300744964
5.927939113315869,9.176084675025397,-0.3418720291846783,-7.863615531784058
6.019699960066123,9.230925761674037,-0.42050818450251887,-7.896857861313188
6.112009217682863,9.018524925399653,-0.49947676311565076,-7.513814159016763
6.20219446693686,8.618760596203924,-0.5746149047058184,-6.826213341814245
6.2883820728989,8.159974338589738,-0.6428770381239609,-6.0169639832418325
6.369981816284797,7.729856411102041,-0.7030466779563792,-5.213359560229527
6.447280380395817,7.362030529924273,-0.7551802735586745,-4.466689706211097
6.52090068569506,7.060160526301937,-0.7998471706207855,-3.7854916336005067
6.591502290958079,6.817000643288079,-0.8377020869567905,-3.1623413982034796
6.65967229739096,6.622971822957009,-0.8693255009388253,-2.5861381213443324
6.72590201562053,6.469094705345992,-0.8951868821522686,-2.0464671035934083
6.7905929626739905,6.34769040989715,-0.9156515531882027,-1.5347821094430196
6.854069866772962,6.25233612108925,-0.9309993742826329,-1.044493396050814
6.916593227983855,6.177626599554148,-0.9414443082431411,-0.570742571587065
6.978369493979396,6.11892626431833,-0.9471517339590118,-0.11012899752960686
7.039558756622579,6.072164832713455,-0.9482530239343078,0.3395354817176663
7.1002804049497135,6.0336851659725514,-0.9448576691171311,0.7794309870240329
7.160617256609439,6.000138530014762,-0.9370633592468908,1.20990023728949
7.220618641909587,5.968419380299133,-0.9249643568739959,1.6305960947572018
7.280302835712578,5.935631747451194,-0.908658395926424,2.0406151942347286
7.33965915318709,5.899079918396146,-0.8882522439840767,2.438623786491039
7.398649952371051,5.856276714461236,-0.8638660061191663,2.8229788058972933
7.457212719515663,5.804963211857466,-0.8356362180601934,3.1918445425344095
7.515262351634238,5.743134348397257,-0.8037177726348493,3.543303419341926
7.57269369511821,5.669065620722378,-0.7682847384414301,3.875458345713839
7.629384351325434,5.581337027676901,-0.7295301549842916,4.18652390864614
7.6851977216022025,5.4788514977637055,-0.6876649158978302,4.474904117171389
7.739986236579839,5.360846129067619,-0.6429158747261163,4.739255289755527
7.793594697870516,5.226895528834268,-0.595523321828561,4.978533686161945
7.845863653158858,5.076907257803181,-0.5457379849669416,5.192028383755615
7.89663272573689,4.911109815821858,-0.49381770112938544,5.379380516827661
7.945743823895108,4.730033777767615,-0.44002389596110886,5.540590281083196
7.993044161672784,4.534486688550615,-0.3846179931502769,5.6760131031828935
8.03838902855829,4.3255222667498066,-0.327857862118448,5.786346206671512
8.08164425122579,4.1044044536269,-0.26999440005173286,5.872606612902455
8.122688295762059,3.872566945063435,-0.2112683339227083,5.936101517665216
8.161413965212693,3.6315690715931166,-0.15190731874605615,5.978392045270424
8.197729655928624,3.3830492064870574,-0.0921233982933519,6.001251599761474
8.231560147993495,3.1286772071046363,-0.03211088229573715,6.006620348298871
8.262846920064542,2.8701076415361806,0.027955321187251567,5.996557691592995
8.291547996479903,2.608935645793842,0.08792089810318152,5.973194803869195
8.31763735293784,2.3466571549409356,0.14765284614187346,5.938689386984412
8.34110392448725,2.084634955595824,0.20703974001171757,5.895184647346157
8.361950274043208,1.8240715575438198,0.2659915864851791,5.844774182308583
8.380190989618646,1.565989345684373,0.32443932830826494,5.78947400360343
8.39585088307549,1.3112179264419779,0.3823340683442992,5.731202399001201
8.40896306233991,1.0603880939901384,0.43964609233431123,5.67176781279187
8.419566943279811,0.813931461109547,0.49636377046222996,5.612864471775725
8.427706257890907,0.5720845532521313,0.5524924151799873,5.556075135699357
8.433427103423428,0.3348960560517641,0.6080531665369808,5.502880124142395
8.436776063983945,0.10223592354469854,0.6630819677784048,5.454671657274169
8.437798423219393,-0.12619482337605767,0.7176286843511465,5.4127725179371176
8.436536474985632,-0.35085456950304317,0.7717564095305176,5.378458053737894
8.433027929290601,-0.5723525207837399,0.8255409900678965,5.35298053158844
8.427304404082763,-0.791441350787258,0.8790707953837809,5.3375947545928675
8.41938999057489,-1.0090108391838126,0.9324467429297095,5.333583539984357
8.409299882183053,-1.2260814915769576,0.9857825783295531,5.342280965636629
8.397039067267283,-1.4437959300394008,1.0392053879859193,5.3650899477667675
8.382601107966888,-1.6634039034148829,1.092856287463587,5.403488269268253
8.36596706893274,-1.8862335795301748,1.1468911701562696,5.4590129233773075
8.347104733137439,-2.11363657150136,1.2014812993900428,5.533205475540059
8.325968367422425,-2.3468858447605134,1.2568133541454434,5.627489552108464
8.302499508974819,-2.586993108379248,1.313088249666528,5.74293388332337
8.276629577891025,-2.8343953535449145,1.3705175884997616,5.8798302229378026
8.248285624355576,-3.088442926377771,1.4293158907291397,6.036990428671498
8.2174011950918,-3.3466201951328793,1.4896857950158546,6.210663532352296
8.18393499314047,-3.6034881120487774,1.5517924303393775,6.393052576609763
8.147900112019983,-3.84954125788813,1.6157229561054751,6.57069223273576
8.109404699441102,-4.070613310741012,1.6814298784328328,6.723563548454531
8.068698566333692,-4.249041296581053,1.7486655139173781,6.82663138356625
8.026208153367882,-4.3678057760572235,1.8169318277530406,6.855512513945494
7.98253009560731,-4.4170973601584285,1.8854869528924956,6.7955358052888615
7.938359122005726,-4.399555097345091,1.9534423109453842,6.649000776756894
7.894363571032275,-4.329706133401428,2.019932318712953,6.4344423631178636
7.851066509698261,-4.227719179517565,2.084276742344132,6.178066361211567
7.808789317903085,-4.112400668567514,2.1460574059562476,5.904172176678295
7.76766531121741,-3.997475142862746,2.2050991277230305,5.630113995777823
7.727690559788782,-3.891279787552129,2.2614002676808087,5.365938790664497
7.688777761913261,-3.798075312797079,2.315059655587454,5.116207771193782
7.650797008785291,-3.719549532224806,2.366221733299392,4.882050646105145
7.613601513463043,-3.655958902336709,2.415042239760443,4.662706091942114
7.577041924439675,-3.606855966191386,2.4616693006798642,4.456489186376711
7.540973364777762,-3.5715093350380394,2.5062341925436313,4.2613386959451
7.5052582714273814,-3.5491296595011725,2.5488475795030823,4.075102430964517
7.469766974832369,-3.538982866358573,2.5895986038127274,3.895672735196545
7.434377146168783,-3.5404410203658734,2.628555331164693,3.721041068887371
7.398972735965125,-3.5529998325846837,2.6657657418535665,3.5493113370724476
7.363442737639278,-3.5762787950379447,2.701258855224291,3.378693981460102
7.327679949688898,-3.6100123804016326,2.735045795038892,3.2074928855165883
7.291579825884882,-3.6540364935319514,2.767120723894058,3.0340917341396683
7.255039460949562,-3.7082719839185168,2.7974616412354547,2.8569436509832715
7.217956741110377,-3.772705696367701,2.8260310777452875,2.6745665503174605
7.1802296841467,-3.8473687917598127,2.8527767432484623,2.485546022610119
7.141755996229102,-3.932311670308823,2.8776322034745636,2.2885473357202426
7.102432879526013,-4.027574666042385,2.900517676831766,2.0823380307060466
7.06215713286559,-4.133153721954822,2.9213410571388265,1.8658224414889266
7.020825595646041,-4.248960518224056,2.9399992815537157,1.6380891127972685
6.9783359904638,-4.374777055764822,2.9563801726816883,1.3984713799589683
6.934588219906152,-4.510205542709127,2.970364886481278,1.14662017064335
6.88948616447906,-4.654615613660469,2.9818310881877115,0.882586301980775
6.842940008342456,-4.80709238477332,2.9906569512075194,0.6069071880703482
6.794869084494723,-4.966390453042609,2.9967260230882227,0.3206901291103618
6.745205179964296,-5.130900379356584,2.9999329243793262,0.025681652375326436
6.69389617617073,-5.298635001265213,3.0001897409030795,-0.27568959433012113
6.640909826158078,-5.467242580796558,2.9974328449597785,-0.5803092679177473
6.586237400350112,-5.634051871022252,2.991629752280601,-0.8844238987569446
6.529896881639889,-5.796150560532557,2.9827855132930314,-1.1837435358835502
6.471935376034564,-5.950493622387121,2.970948077934196,-1.4735989907861977
6.412430439810692,-6.094032823276174,2.956212088026334,-1.7491435330107854
6.351490111577931,-6.223854390212929,2.9387206526962264,-2.0055809732672074
6.289251567675802,-6.337309877401503,2.918664842963554,-2.23839706458289
6.2258784689017865,-6.432126336122178,2.896280872317725,-2.4435705638251752
6.161557205540565,-6.506485757181663,2.8718451666794733,-2.61774433460258
