th1 (rad),w1 (rad/s),th2 (rad),w2 (rad/s)
3.54099796713395,-1.315087889524801,5.108465244394427,-1.4247932912371262
3.527847088238702,-1.2669498948001472,5.094217311482056,-1.351834986730614
3.5151775892907007,-1.2210592808860683,5.0806989616147495,-1.277147043808362
3.50296699648184,-1.177339444692279,5.067927491176666,-1.2008594723517951
3.491193602034917,-1.1357072723432473,5.055918896453147,-1.1230924761575305
3.4798365293114846,-1.0960736737594243,5.044687971691572,-1.0439571458489185
3.4688757925738902,-1.0583440869995915,5.034248400233083,-0.9635561077951528
3.458292351703894,-1.022418950230914,5.0246128391551315,-0.8819841231269069
3.448068162201585,-0.9881941401594674,5.015792997923862,-0.7993286325525496
3.4381862207999907,-0.9555613765031565,5.007799711598336,-0.7156702441405225
3.4286306070349593,-0.9244085926475529,5.0006430091569305,-0.6310831625438533
3.4193865211084837,-0.894620273019861,4.994332177531492,-0.5456355593079716
3.410440318378285,-0.866077757973057,4.988875821938412,-0.459389884931232
3.4017795407985543,-0.8386595171162806,4.9842819230891,-0.3724031242484258
3.3933929456273915,-0.8122413920825289,4.980557891846615,-0.2847269974912483
3.385270531706566,-0.7866968097128473,4.977710621871703,-0.19640811005653117
3.3774035636094375,-0.7618969665782457,4.975746540771137,-0.10748805459316811
3.3697845939436553,-0.7377109856756732,4.974671660225206,-0.01800346951188983
3.3624074840868987,-0.7140060460403233,4.974491625530087,0.07201394156212457
3.3552674236264957,-0.6906474859297334,4.975211764945708,0.1625374245261128
3.348360948767198,-0.6674988801708152,4.97683713919097,0.2535452185695833
3.34168595996549,-0.6444220922332831,4.9793725913766655,0.3450206235813389
3.335241739043157,-0.6212773016151807,4.982822797612479,0.4369520855980761
3.329028966027005,-0.5979230072108427,4.98719231846846,0.529333294528064
3.3230497359548967,-0.5742160074905356,4.99248565141374,0.6221632882296496
3.3173075758799913,-0.5500113585656257,4.998707284296037,0.7154465568747164
3.311807462294335,-0.5251623115545465,5.005861749864784,0.8091931413672723
3.30655583917879,-0.49952023111409427,5.013953681278457,0.9034187194010695
3.301560636867649,-0.472934497568716,5.022987868472467,0.9981446725100331
3.296831291891962,-0.4452523957687241,5.032969315197567,1.093398127172444
3.2923787679342746,-0.4163189946483127,5.043903296469292,1.18921196265439
3.2882155779877915,-0.3859770224477472,5.055795416095836,1.2856247777995586
3.284355807763314,-0.3540667437232503,5.0686516638738315,1.3826808083708566
3.2808151403260815,-0.32042584560494114,5.08247847195754,1.4804297858056854
3.2776108818700322,-0.28488934228908613,5.097282769815597,1.5789267273447232
3.2747619884471413,-0.24728950847565534,5.113072037089045,1.6782316464218414
3.2722890933623847,-0.2074558543924217,5.129854353553263,1.778409170955089
3.2702145348184604,-0.16521515718405314,5.147638445262814,1.8795280557597334
3.26856238324662,-0.12039156578209931,5.166433725820411,1.9816605737315698
3.267358467588799,-0.07280679889059571,5.186250331557727,2.0848817687570658
3.266630399599893,-0.022280458386016458,5.207099149245298,2.1892685515544694
3.2664075950160325,0.03136951682050685,5.228991834760843,2.2948986179245914
3.2667212901842375,0.08832622866827086,5.2519408209400895,2.40184916731674
3.26760455247092,0.14877299918636097,5.275959312613257,2.5101953983657297
3.2690922824627835,0.21289231841710182,5.301061266596915,2.620008757357223
3.2712212056469547,0.28086452665145534,5.327261354170488,2.7313549157236183
3.274029850913469,0.3528661958035364,5.354574903327724,2.8442914540283364
3.2775585128715043,0.4290681752653293,5.383017817868008,2.9588652329101923
3.2818491946241575,0.5096332699194497,5.41260647019711,3.075109436660833
3.286945527323352,0.5947135227518607,5.443357564563718,3.1930402831005757
3.2928926625508703,0.6844470823891973,5.475287967394724,3.3126534048590504
3.2997371333747623,0.7789546476398076,5.508414501443315,3.4339199227297104
3.3075266798511604,0.8783354975107006,5.542753700670612,3.556782252075763
3.3163100348262673,0.9826631369077635,5.578321523191369,3.6811497088001772
3.326136666195345,1.0919806158303915,5.615133020279371,3.8068940123598907
3.337056472353649,1.2062956135393963,5.65320196040297,3.9338448194655196
3.349119428489043,1.3255754185785507,5.692540408597625,4.061785462576259
3.3623751826748283,1.4497419795838802,5.7331582632233875,4.190449110318461
3.3768726024706672,1.5786672484521398,5.775062754326572,4.31951560968501
3.3926592749551885,1.712169083396867,5.818257910423422,4.448609308228468
3.409780965789157,1.850008020113816,5.862744003505707,4.5772981830800825
3.4282810459902953,1.9918852488389476,5.908516985336508,4.705094616022098
3.4481998984786846,2.1374421466320888,5.955567931496729,4.831458142839989
3.4695743199450053,2.2862617004578745,6.003882512925129,4.955800463707297
3.4924369369495842,2.4378721107895682,6.053440517562202,5.077492923568521
3.51681565805748,2.5917527825643183,6.1042154467978875,5.1958765542172625
3.5427331858831232,2.7473427886970097,6.15617421234006,5.3102746140743315
3.570206613770093,2.9040517340845855,6.209276958480803,5.4200073742001065
3.599247131110939,3.0612727639812576,6.263477032222804,5.524408692842605
3.6298598587507516,3.218397264755255,6.31872111915123,5.622843714981517
3.662043831398304,3.374830617516218,6.374949556301045,5.7147268516130785
3.6957921375734664,3.530008209118112,6.432096824817176,5.799539061284709
3.7310922196646477,3.6834108034443886,6.490092215430023,5.8768433965412585
3.7679263276990915,3.834578347148076,6.5488606493954356,5.946297806484779
3.806272111170572,3.9831213383854935,6.608323627460283,6.007664308793506
3.846103324554427,4.128729023793181,6.668400270548219,6.060813852507183
3.887390614792359,4.271173895460365,6.72900840907329,6.105726466086346
3.9301023537469626,4.410312213122302,6.790065673734154,6.142486593175085
3.9742054758781857,4.546080547813495,6.851490539665905,6.171273825685315
4.01966628135632,4.67848860073655,6.913203277922758,6.192349515932143
4.066451167363686,4.8076087676644175,6.97512677308208,6.206039959045618
4.114527255040331,4.9335630751260755,7.037187172672536,6.212716967101837
4.163862885791592,5.0565082004130355,7.099314342343554,6.212776703245954
4.214427967795722,5.176619303975542,7.161442109376013,6.20661761514861
4.266194160835478,5.2940733597164025,7.223508285527499,6.194618219036222
4.319134894432642,5.409032581627403,7.285454467717861,6.177115359991361
4.373225220248916,5.521628432412191,7.347225621317775,6.154383434196885
4.428441504573038,5.6319465792024195,7.408769455659744,6.12661492530191
4.484760970365062,5.740013048799008,7.470035604912763,6.093902497098578
4.542161100853051,5.845781742084644,7.530974629883748,6.056222810301103
4.600618918273898,5.949123402548106,7.5915368579867595,6.01342219972359
4.660110152299379,6.0498161019928105,7.651671079983996,5.965204362848098
4.720608313319307,6.147537309564149,7.711323123612477,5.911120271909066
4.782083686414948,6.241857648493725,7.770434326331568,5.850560627274082
4.844502262899885,6.332236517537076,7.8289399326043085,5.782751316446668
4.907824628075256,6.418019859215148,7.8867674457687755,5.70675252496457
4.9720048266674075,6.49844049176245,7.943834971018421,5.621462354521416
5.036989231585032,6.572621581147355,8.000049594563635,5.525626026842457
5.1027154473965055,6.6395840048074835,8.05530585483206,5.417851968746331
5.16911128744458,6.698258534468138,8.109484374519523,5.296636252768964
5.236093872789262,6.747503916291503,8.162450737047212,5.160396961662262
5.303568911952176,6.786132013698208,8.214054706663836,5.007519987878493
5.371430232089159,6.812941145954475,8.264129906542621,4.836417484310408
5.439559643548703,6.8267585316021275,8.312494081385726,4.64559954739257
5.507827228864724,6.826492246208676,8.358950076859651,4.43375863323804
5.576092151326811,6.8111922485257885,8.403287663192032,4.199864602913214
5.644204073812069,6.780118769301788,8.445286309221164,3.943266157104384
5.7120052615050865,6.732814716908282,8.484718970792207,3.6637918781881362
5.7793334086741694,6.6691768791927935,8.521356889574088,3.3618414673254815
5.846025177466097,6.589518897332239,8.554975304247343,3.0384555910839897
5.9119203664394195,6.494617722050798,8.585359860158183,2.6953517737133064
5.976866543659927,6.385735095396143,8.612313377895317,2.33491477286864
6.040723894613889,6.2646070297281655,8.635662525624003,1.9601334287467704
6.10336996491117,6.13339749386981,8.655263859911472,1.5744821089892969
6.164703939849868,5.994617287791046,8.671008681001364,1.1817528182433361
6.224650112727779,5.85101454710618,8.682826209183798,0.7858522299336925
6.283160258198841,5.70544820708681,8.690684731483135,0.3905843012273724
6.340214740269709,5.560758780510442,8.694590574495408,-0.0005580750198468931
6.395822328074813,5.419651115499491,8.69458499374521,-0.38457066181811833
6.450018839229808,5.284601335987615,8.690739287127029,-0.7590688558674632
6.502864852589685,5.157795680414301,8.683148598568353,-1.1223645955810768
6.554442809393828,5.041103704580726,8.671924952612542,-1.4734905129175297
6.604853846439635,4.936083594555402,8.657190047483367,-1.8121798137860914
6.654214682385189,4.844014052972321,8.639068249345506,-2.138814770386195
6.702654822914912,4.765945711324976,8.617680101641644,-2.454358133514551
6.750314280028162,4.702765099774453,8.5931365203065,-2.7602807900638324
6.7973419310259064,4.655265381825096,8.56553371240586,-3.058496534994548
6.843894584844158,4.624219754571622,8.534948747055916,-3.3513118124503958
6.890136782389874,4.6104551084834124,8.501435628931413,-3.641395345050871
6.936241333474708,4.614924815780836,8.465021675480903,-3.9317699555364953
6.982390581632517,4.638779983199271,8.425703975925538,-4.225826383320162
7.02877838146451,4.683437619407196,8.383445712092337,-4.527355750418793
7.075612757658582,4.750640896761547,8.338172154588149,-4.840591920834149
7.123119166626197,4.842498891632528,8.289766235379807,-5.170244117422324
7.171544155542523,4.961476450341119,8.238063794205583,-5.521477454372356
7.221158920045934,5.110270297546248,8.18284901966186,-5.899752015518617
7.272261623021396,5.291438408188408,8.123851499506674,-6.3103362062728
7.32517600710328,5.506517985701464,8.060748137443946,-6.757127908078784
7.380241186960294,5.754141695458193,7.993176858363158,-7.240102698279829
7.437782603914876,6.02637302724803,7.92077583138036,-7.750303065149601
7.498046334187356,6.302489430967309,7.843272800728864,-8.261284232245883
7.561071228497029,6.541110633204582,7.760659958406405,-8.71824190242462
7.626482334829075,6.677575064362628,7.6734775393821595,-9.034401289693491
7.693258085472701,6.6422724870478325,7.583133526485224,-9.116492967549922
7.75968081034318,6.405973086487229,7.491968596809725,-8.927563743372133
7.823740541208052,6.011326343419324,7.402692959376004,-8.530070955172093
7.883853804642245,5.542100724118421,7.317392249824283,-8.042321641695361
7.939274811883429,5.067698760118324,7.2369690334073296,-7.561414323285032
7.989951799484612,4.623011813236123,7.161354890174479,-7.1359925876895245
8.036181917616974,4.218015850742294,7.089994964297584,-6.780159644062113
8.078362076124396,3.8509049027379283,7.022193367856962,-6.491920113664172
8.116871125151775,3.515815042570413,6.957274166720321,-6.2639067082803415
8.15202927557748,3.2062000659753687,6.894635099637518,-6.08801529515527
8.184091276237233,2.916036184669808,6.833754946685965,-5.957026134100069
8.21325163808393,2.6401276082356553,6.774184685344965,-5.864987168428813
8.239652914166287,2.3740859557547616,6.7155348136606765,-5.807151815221829
8.263393773723834,2.114214596095355,6.6574632955084585,-5.779786953068845
8.284535919684787,1.857384056492114,6.59966542597777,-5.779966030251823
8.303109760249708,1.6009271223286714,6.541865765675252,-5.805383095091071
8.319119031472994,1.3425606584225234,6.483811934724341,-5.854194097913955
8.332544638057218,1.0803337744110777,6.425269993745201,-5.9248819041422305
8.34334797580133,0.8125999085148982,6.3660211747037785,-6.016139010846865
8.351473974886478,0.5380101759361621,6.3058597845953095,-6.126762264317556
8.35685407664584,0.2555254964645678,6.244592161952134,-6.255555177557299
8.359409331610486,-0.035555008423206635,6.182036610176561,-6.401235159778596
8.359053781526255,-0.3355523340063461,6.1180242585787745,-6.562344957634475
8.355698258186191,-0.6443566483246446,6.05240080900243,-6.737169868440488
8.349254691702944,-0.9613727101643182,5.985029110318025,-6.923664795410474
8.339640964601301,-1.285469310817982,5.91579246236392,-7.119397823012385
8.326786271493122,-1.6149425519877967,5.844598484133797,-7.321519336726127
8.310636845973244,-1.947504472536751,5.7713832907665354,-7.526767180827621
8.291161801247876,-2.2803089876860265,5.69611561895826,-7.731518105467875
8.268358711371016,-2.6100253927616754,5.618800437903581,-7.931892917507462
8.2422584574434,-2.932965065880058,5.539481508728507,-8.12391673112297
8.2129288067846,-3.2452593291447966,5.458242341417277,-8.303726690835635
8.180476213493153,-3.5430765661291983,5.37520507450892,-8.467808866043612
8.14504544783186,-3.8228567107726557,5.2905269858484845,-8.613236287780675
8.106816880724134,-4.081534029600978,5.2043946229706775,-8.737874587528275
8.066001540428124,-4.316717511162791,5.117015877095395,-8.840523155272233
8.022834365316495,-4.526803574675277,5.028610645542672,-8.920968999592635
7.977566329569742,-4.711007348905968,4.939400955546746,-8.979945695362746
7.930456256080682,-4.869313367681595,4.849601498593119,-9.019006790251767
7.881763122403866,-5.0023600393768755,4.759411430690601,-9.040336985177616
7.831739522010097,-5.111281161626906,4.6690080608388245,-9.046531785017594
7.780626710393828,-5.197530473727534,4.578542742988649,-9.04037616990565
7.728651405656553,-5.2627123596706875,4.488138981289593,-9.024646706401574
7.676024282059846,-5.308435412871092,4.397892514225577,-9.00195234618505
7.622939927931135,-5.336198105316411,4.307872990763727,-8.974619911584856
7.569577946877971,-5.347309200413166,4.218126791647879,-8.944622966795592
7.51610485487384,-5.342840826596191,4.128680561979922,-8.913548229518732
7.462676446607878,-5.323609462399274,4.039545079684735,-8.88259172876549
7.409440351983885,-5.29017911419812,3.9507191623970797,-8.852576880396155
7.356538560841903,-5.242881128896079,3.862193393593118,-8.823987733796702
7.304109749552943,-5.181845829795268,3.773953516255151,-8.797012165362068
7.25229129125499,-5.107042080106623,3.6859833946015303,-8.77159129431287
7.201220870453924,-5.018321704860264,3.5982674816584015,-8.74747261596588
7.1510376534053215,-4.915466311181939,3.5107927554987426,-8.724265185313254
7.101882990293502,-4.798234409151633,3.42355010364561,-8.701495640996923
7.053900646201986,-4.666406885051095,3.3365351472356406,-8.678663999049926
7.007236577351475,-4.519828888415674,3.2497485072451413,-8.655298063200911
6.962038288467318,-4.358446155563908,3.163195526613132,-8.631005106139643
6.918453826911679,-4.182333799605804,3.0768854755517356,-8.6055192889722
6.876630488915621,-3.9917157322553396,2.9908302826620137,-8.578743209786918
6.836713331593068,-3.7869732007559005,2.9050428505641444,-8.550782089585297
6.798843599585509,-3.568641438810964,2.8195350296682915,-8.52196946159957
6.763157185197399,-3.3373941119312023,2.7343153350522957,-8.492883829559696
6.729783244078087,-3.094016008664221,2.6493864967566987,-8.464356555795149
6.698843083991445,-2.839365180694442,2.5647429311987473,-8.437472146162804
6.6704494321845,-2.574326345720488,2.480368209737119,-8.41356300994086
6.6447061687272955,-2.299757728887601,2.3962325796377106,-8.394201587059168
6.621708591438419,-2.016433557674515,2.312290563767119,-8.381193378738965
6.601544255861674,-1.7249841163467612,2.2284786299797297,-8.376574863358949
6.584294414698206,-1.4258346353749338,2.1447128813461402,-8.382620551726383
6.570036068344457,-1.1191434089706411,2.0608866758288764,-8.401863602572568
6.558844634254751,-0.8047385060120336,1.9768680398031506,-8.437134565638164
6.5507972491946305,-0.48205140953178977,1.892496694146769,-8.491623003976319
6.5459767350993125,-0.150045103516532,1.8075804641070057,-8.56896691618463
6.544476284064147,0.19286607959003338,1.7218907949451594,-8.673374703107662
6.546404944860047,0.5489062824452661,1.635157047914083,-8.809782929232657
6.5518940076845,0.9210344040143581,1.5470592186217562,-8.984047861547667
6.5611043517246435,1.3130311330494275,1.4572187400062795,-9.203153837344166
6.574234663055138,1.729530405404489,1.365187201632838,-9.475383055842103
6.5915299671091825,2.1758766981327216,1.270433371074417,-9.810297275551209
6.61328873409051,2.657523431929299,1.1723303983189048,-10.218159794474332
6.639863968409803,3.1783200161874205,1.0701488003741615,-10.707924824477724
6.671647168571678,3.7362885566699973,0.9630695521293843,-11.28188675131136
6.7090100541383775,4.314305068454584,0.8502506846162707,-11.923402529256585
6.7521531048229235,4.862739570672963,0.7310166593237049,-12.573467875039208
6.800780500529653,5.278186648175349,0.6052819805733127,-13.101417475213712
6.853562367011406,5.410363842687139,0.4742678058211756,-13.313245843744559
6.907666005438278,5.153404239892746,0.34113534738373,-13.074137593386812
6.959200047837205,4.566960401849388,0.2103939714498619,-12.469617695074412
7.004869651855699,3.8294792512953735,0.0856977944991178,-11.737469561755852
7.043164444368653,3.0820542480375734,-0.03167690111844072,-11.057459250340266
7.0739849868490285,2.3818735152499952,-0.14225149362184336,-10.494773352785964
7.097803722001529,1.7379044458119033,-0.247199227149703,-10.051888192198419
7.115182766459648,1.1424906846107474,-0.3477181090716872,-9.71139741218916
7.126607673305755,0.5849152308014625,-0.4448320831935788,-9.453395294911541
7.13245682561377,0.05569630297401018,-0.5393660361426942,-9.260394684283765
7.13301378864351,-0.4524621134098237,-0.6319699829855319,-9.117977701276843
7.128489167509412,-0.9447266530274003,-0.7231497599983003,-9.014293833059558
7.119041900979138,-1.4244216696805534,-0.813292698328896,-8.939393547802029
7.104797684282332,-1.893321112675702,-0.9026866338069163,-8.884665859440435
7.085864473155575,-2.351897553257419,-0.9915332924013206,-8.842427882634373
7.062345497623001,-2.7995336204068524,-1.0799575712276643,-8.805654733776098
7.034350161418932,-3.2347129345752808,-1.1680141185654254,-8.767826363818065
7.00200303207318,-3.6552061881536764,-1.255692382203606,-8.722868163198932
6.965450970191643,-4.058262349630725,-1.3429210638355953,-8.665163771153473
6.924868346695336,-4.440808152624576,-1.42957270154713,-8.5896190340386
6.88046026516909,-4.799652473572134,-1.515468891887516,-8.491755816571885
6.832463740433369,-5.131686932156196,-1.600386450053235,-8.36781452069689
6.781146871111806,-5.43407095039971,-1.6840645952602038,-8.21484583190822
6.72680616160781,-5.704389143620326,-1.766213053579286,-8.030776003675582
6.669762270171606,-5.94077128997168,-1.8465208136160418,-7.814435744332396
6.61035455727189,-6.141969571198265,-1.9246651710593659,-7.565549562484414
6.548934861559907,-6.307393108029708,-2.00032066668421,-7.284688870153663
6.4858609304796095,-6.437104671571227,-2.0731675553857465,-6.973196874838553
6.421489883763897,-6.531787731017905,-2.142899524134132,-6.633095446250834
6.3561720064537175,-6.5926931576705226,-2.2092304785966403,-6.266983618325097
6.290245074877013,-6.621574061693762,-2.2719003147798915,-5.877934817148573
6.224029334260075,-6.620615027613861,-2.3306796629513773,-5.469396390607141
6.157823183983937,-6.592359319369613,-2.3853736268574486,-5.045091740256576
6.0918995907902405,-6.539635281766613,-2.435824544260014,-4.608923246981246
6.026503237972574,-6.465481744743569,-2.4819137767298267,-4.164873697419586
5.961848420525138,-6.373071946444085,-2.5235625137040225,-3.7169049939962937
5.8981177010606975,-6.265636181672554,-2.5607315636439854,-3.268855066631179
5.835461339243972,-6.146384645755473,-2.5934201143102973,-2.824336341954207
5.7739974927864175,-6.018433259928657,-2.6216634777298395,-2.3866410812029355
