th1 (rad),w1 (rad/s),th2 (rad),w2 (rad/s)
1.159725715485041,-2.1074036413839683,0.3907041021183828,-1.0582389963497811
1.1386516790712014,-2.2306383378353645,0.380121712154885,-0.9761206757078267
1.1163452956928477,-2.35485265814814,0.37036050539780674,-0.8880953111893485
1.0927967691113663,-2.4801749302181335,0.3614795522859133,-0.7938914850546747
1.067995019809185,-2.6067435724673724,0.3535406374353665,-0.6932642934349924
1.0419275840845112,-2.7347040829475606,0.3466079945010166,-0.5860042011786618
1.0145805432550357,-2.8642035542822053,0.34074795248922995,-0.4719494294427388
0.9859385077122136,-2.9953817083869683,0.3360284581948026,-0.35100327553801924
0.9559846906283439,-3.1283571074665977,0.3325184254394224,-0.22315823923481293
0.924701119553678,-3.2632067861846648,0.3302868430470743,-0.08852940163934855
0.8920690516918313,-3.3999370890231706,0.3294015490306808,0.05259986965339297
0.8580696808015995,-3.5384430651834315,0.3299275477272147,0.19971625249118322
0.8226852501497652,-3.6784535521301835,0.33192471025212655,0.35199497369325633
0.7859007146284634,-3.8194594277974923,0.3354446599890591,0.5081952499685645
0.7477061203504886,-3.9606240662308467,0.3405266124887447,0.6665318426008261
0.7080998796881801,-4.100678780739394,0.347191930914753,0.8245275088331947
0.6670930918807861,-4.237813253781175,0.3554372060030849,0.978861738405932
0.6247149593429744,-4.36958269441666,0.36522582338714427,1.1252482371019554
0.5810191323988078,-4.492869247852653,0.3764783057581638,1.2583963714454087
0.5360904399202813,-4.6039505529927895,0.3890622694726179,1.3721336989821573
0.49005093439035335,-4.698732258739036,0.4027836064624395,1.4597717962575991
0.443063611802963,-4.77317684471676,0.41738132442501547,1.5147614928823931
0.3953318433557954,-4.8238953497758414,0.4325289393538394,1.5315878190634655
0.347092889858037,-4.848773187299086,0.4478448175444741,1.506716209732073
0.2986051579850461,-4.847427296302441,0.4629119796417948,1.4392934724600623
0.2501308850220217,-4.821308388290489,0.47730491436639544,1.3313292959479628
0.20191780113911678,-4.773391416444063,0.4906182073258751,1.1872699437016598
0.15418388697467614,-4.707570685161854,0.5024909067628917,1.01312727233558
0.10710818012305759,-4.6279799003673325,0.5126221794862474,0.8154801854802727
0.06082838111938426,-4.5384367365193015,0.5207769813410502,0.6006406264519701
0.015444013754191244,-4.442108510830771,0.5267833876055699,0.3741306467795269
-0.028977071354116465,-4.341391736928113,0.5305246940733651,0.14046723100379904
-0.0723909887233976,-4.237942350137244,0.531929366383403,-0.09683149647502684
-0.11477041222477004,-4.132785421331091,0.5309610514186528,-0.33511936297765244
-0.15609826643808095,-4.026450571057408,0.5276098577888763,-0.5724522304642712
-0.19636277214865502,-3.9191016889049606,0.5218853354842335,-0.8074215386655158
-0.23555378903770463,-3.810647039008101,0.5138111200975783,-1.0390128338450695
-0.27366025942778566,-3.700826419008298,0.5034209917591277,-1.266495344692344
-0.3106685236178686,-3.589277216662039,0.49075603831220427,-1.4893408294852142
-0.346561295784489,-3.475583069630611,0.47586263001735213,-1.7071668511394062
-0.38131712648079513,-3.359309000917354,0.45879096150595805,-1.919699073773282
-0.4149102164899687,-3.240026366723259,0.4395939707682252,-2.1267477065706615
-0.44731048015720126,-3.1173302337568014,0.4183264937025186,-2.328194097572064
-0.4784837824947693,-2.9908511317143476,0.395044552726798,-2.523984355781922
-0.5083922938119128,-2.8602625856097257,0.3698047091689788,-2.714127624925149
-0.53699491966801,-2.725285433855781,0.3426634329197273,-2.8986972185166233
-0.5642477740065679,-2.5856896661814925,0.31367646073456107,-3.0778332665109644
-0.5901046706683828,-2.4412943484163,0.2828981280694514,-3.251745842405951
-0.6145176141525458,-2.291966118663839,0.2503806696453919,-3.4207177576368997
-0.6374372753391842,-2.13761672657858,0.21617349206902292,-3.5851063412244755
-0.65881344260497,-1.9782001360895989,0.18032242865677817,-3.7453435714313743
-0.678595443965866,-1.8137098208252305,0.1428689929424644,-3.901933887259046
-0.6967325421741183,-1.6441770570909253,0.10384965406987395,-4.055448865243759
-0.7131743127450275,-1.4696712759977921,0.06329516541743636,-4.20651767459271
-0.7278710255050055,-1.2903038967214666,0.021229988671509256,-4.355811783725889
-0.7407740644722202,-1.1062375555562927,-0.02232812916574963,-4.504021737514355
-0.751836440027783,-0.9177032985972658,-0.06736834654089319,-4.6518229103193605
-0.7610134730137557,-0.7250291297760162,-0.1138865756440868,-4.799825941105206
-0.7682637643115158,-0.5286842534300616,-0.16188483505513887,-4.948506124301793
-0.7735506068458163,-0.3293442362817117,-0.2113698962981568,-5.09810459947678
-0.7768440492086335,-0.12798266429471125,-0.2623509422929246,-5.248493381458659
-0.7781238758515806,0.07400632154268974,-0.3148358761075112,-5.398997461982175
-0.7773838126361537,0.2746548230828437,-0.3688258507273329,-5.548172949666323
-0.7746372644053253,0.47124846560662115,-0.4243075802239962,-5.69355457521785
-0.7699247797492591,0.6601661035944946,-0.4812431259761747,-5.831413854891023
-0.7633231187133142,0.8367961619341312,-0.5395572645250849,-5.9566133107428625
-0.7549551570939729,0.9956311513683161,-0.5991233976325135,-6.062694058758286
-0.7449988455802897,1.130660632473846,-0.6597503382200964,-6.142361806079417
-0.7336922392555513,1.2361389314907278,-0.7211739562808906,-6.188479436341492
-0.721330849940644,1.307656771757905,-0.7830587506443055,-6.195476805465114
-0.708254282223065,1.3432229212046816,-0.8450135186989567,-6.160786198860637
-0.6948220530110182,1.3439097388803651,-0.906621380687563,-6.085704764257441
-0.6813829556222145,1.313720921176182,-0.9674784283301374,-5.9752260693781745
-0.6682457464104526,1.2587072867036382,-1.0272306890239191,-5.83687918802691
-0.6556586735434162,1.1857257976590851,-1.0855994809041882,-5.679108539990571
-0.6438014155668254,1.1013270505707922,-1.1423905663040939,-5.509841516835799
-0.6327881450611175,1.0110600832638554,-1.1974889814724519,-5.335620131769317
-0.6226775442284789,0.9192175237322063,-1.250845182790145,-5.1613152069045345
-0.6134853689911568,0.8288877515402443,-1.3024583348591903,-4.990236774657935
-0.6051964914757544,0.742156597709306,-1.3523607026057696,-4.824428275856961
-0.5977749254986613,0.6603454929346324,-1.4006049853643392,-4.664995814778571
-0.591171470569315,0.5842268821698002,-1.447254943512125,-4.512397419386854
-0.5853292017476169,0.5141958696956561,-1.4923789177059934,-4.36666802992384
-0.5801872430506604,0.45039728429286047,-1.5360455980052319,-4.2275820165471885
-0.5756832702077318,0.3928154181456184,-1.5783214181707037,-4.094764792030236
-0.5717551160262756,0.34133537853139095,-1.619269066091006,-3.9677665432016194
-0.5683417622409617,0.29578401392420606,-1.6589467315230222,-3.846109262632712
-0.5653839221017196,0.2559566447408058,-1.6974078241493493,-3.7293156225309043
-0.5628243556543115,0.2216341559466034,-1.7347009803746585,-3.6169258163131355
-0.5606080140948455,0.19259365629962516,-1.77087023853779,-3.5085065960421433
-0.5586820775318493,0.1686149034738928,-1.8059553044982113,-3.403655353042003
-0.5569959284971103,0.14948398025637075,-1.8399918580286314,-3.3020011263718327
-0.5555010886945466,0.13499521349730056,-1.8730118692923496,-3.2032037701871556
-0.5541511365595736,0.12495199198541904,-1.905043906994221,-3.106952074627217
-0.5529016166397194,0.11916691366361244,-1.9361134277404932,-3.012961346859139
-0.5517099475030832,0.11746154169845298,-1.9662430412090846,-2.920970770451494
-0.5505353320860987,0.11966594851830778,-1.9954527489135996,-2.8307407388260826
-0.5493386726009156,0.125618160398591,-2.0237601563018606,-2.7420502795910964
-0.5480824909969297,0.1351635712641665,-2.0511806590977715,-2.6546946360903423
-0.5467308552842881,0.14815436556370268,-2.077727605458675,-2.56848304060857
-0.5452493116286511,0.16444897131364306,-2.103412435864761,-2.483236693844409
-0.5436048219155146,0.1839115523493694,-2.128244802803205,-2.398786953236654
-0.5417657063920209,0.20641154121450492,-2.1522326723355714,-2.314973725719914
-0.5397015909798759,0.23182320946736984,-2.1753824095927703,-2.2316440566743863
-0.5373833588852022,0.2600252694843192,-2.1976988501595143,-2.1486509050388998
-0.534783106190359,0.29090050042287985,-2.219185359209903,-2.0658520940087928
-0.5318741011861302,0.324335390425406,-2.239843880149991,-1.9831094269440863
-0.5286307472818762,0.3602197870980096,-2.259674974419432,-1.9002879587485173
-0.525028549410896,0.3984465485923384,-2.2786778540069172,-1.817255413840263
-0.5210440839249727,0.43891118812037094,-2.29685040814532,-1.733881742787794
-0.516654972043769,0.48151150536244036,-2.3141892255731977,-1.65003881064298
-0.5118398569901446,0.5261471989357972,-2.3306896136796276,-1.5656002109109803
-0.5065783850007866,0.5727194548467089,-2.3463456157887372,-1.4804411999128215
-0.5008511904523195,0.6211305066399061,-2.3611500277878656,-1.394438746992388
-0.49463988538592046,0.6712831637817929,-2.3750944152577897,-1.307471696571094
-0.4879270537481025,0.7230803056715088,-2.3881691322235006,-1.2194210384401565
-0.48069625069138744,0.7764243395738508,-2.400363342607902,-1.1301702828833748
-0.47293200729564894,0.8312166217191965,-2.411665045436736,-1.0396059372253998
-0.464619841078457,0.8873568418268339,-2.4220611048089897,-0.947618080186293
-0.45574627266018863,0.9447423723867241,-2.431537285610853,-0.8541010299802619
-0.4462988489363214,1.0032675851847397,-2.4400782959106553,-0.7589541014165909
-0.43626617308447396,1.062823138777224,-2.447667836924821,-0.6620824463417271
-0.4256379416967017,1.1232952419057305,-2.4542886613882384,-0.5633979706088712
-0.4144049892776444,1.184564899178348,-2.459922641094327,-0.4628203193907877
-0.40255934028586093,1.246507146708345,-2.464550844288235,-0.36027792109014145
-0.39009426881877746,1.3089902867637133,-2.4681536234991364,-0.2557090783900122
-0.37700436595114034,1.3718751318036944,-2.4707107142830367,-0.14906309318004868
-0.3632856146331034,1.435014269513852,-2.4722013452148373,-0.04030141025996793
-0.34893547193796487,1.498251361546663,-2.4726043593174367,0.07060123705611886
-0.3339529583224982,1.5614204895730999,-2.4718983469468756,0.18365569794112568
-0.3183387534267672,1.6243455628950756,-2.470061789967464,0.2988573115516485
-0.30209529779781646,1.6868398022059616,-2.4670732168519476,0.4161848719458768
-0.2852268997757568,1.748705314073172,-2.462911368132489,0.5355996719470153
-0.2677398466350251,1.8097327703249886,-2.4575553714130187,0.6570446475610231
-0.2496425189317752,1.8697012057465114,-2.4509849249374085,0.7804436440793285
-0.2309455068743101,1.9283779463466073,-2.443180488496615,0.9057008239437268
-0.21166172741084402,1.9855186789990895,-2.4341234802571776,1.0327002348545178
-0.19180654062085312,2.0408676715692913,-2.4237964779086325,1.1613055545484614
-0.1713978639051602,2.0941581508243514,-2.4121834223631478,1.2913600262990845
-0.1504562823969167,2.145112843629696,-2.3992698221001567,1.4226865966889635
-0.12900515396061973,2.1934446853083736,-2.385042956133267,1.5550882648056352
-0.107070707107536,2.2388576977379073,-2.369492073485211,1.688348649980798
-0.08468213013015692,2.2810480389171013,-2.352608586985403,1.8222327837917314
-0.06187164974098591,2.319705225448798,-2.3343862591474855,1.9564881315144433
-0.03867459748649793,2.354513529686266,-2.314821377832341,2.0908458487404564
-0.015129462189635273,2.385153554125747,-2.293912919344937,2.2250222805277238
0.008722073351622197,2.4113039868333797,-2.2716626965396594,2.3587207132036956
0.032835113219956,2.4326435429871784,-2.2480754894076225,2.4916333925660883
0.05716154864982778,2.4488530985842654,-2.2231591554819614,2.623443826343973
0.08165007963567043,2.4596180224833977,-2.1969247172185216,2.7538293928116104
0.10624625986050441,2.4646307116047748,-2.1693864232904057,2.882464280642364
0.13089256697655216,2.463593330627371,-2.140561780483982,3.0090227865711445
0.1555285002828259,2.4562207512588747,-2.1104715526182702,3.1331829962575517
0.18009070779541464,2.442243676553342,-2.079139722655695,3.254630868994288
0.20451314456094807,2.421411922460555,-2.046593413965752,3.373064737821058
0.22872726378555364,2.3934978117512395,-2.0128627665875416,3.488200222703301
0.252662241903066,2.358299615014071,-1.9779807643605085,3.599775535666537
0.2762452380532067,2.315644950380396,-1.9419830090038432,3.7075571336497606
0.2994016875570107,2.2653940293334665,-1.9049074376673456,3.8113456485228467
0.32205562785034536,2.2074426122300146,-1.866793981182117,3.910981996069796
0.3441300539726455,2.1417245162348655,-1.827684161221419,4.00635353929656
0.3655472991349942,2.0682135026984128,-1.7876206258284533,4.097400159222185
0.3862294341619783,1.9869243630078812,-1.7466466242362315,4.184120071672855
0.4060986777920571,1.8979130236679482,-1.704805423519503,4.266575224777211
0.42507780802873657,1.8012755041493955,-1.662139671271731,4.344896121660648
0.44309056307023054,1.6971455851756965,-1.6186907100551244,4.419285938205196
0.4600620189219875,1.5856910795963248,-1.5744978506730725,4.490023847438439
0.47591892971795074,1.4671086404272917,-1.529597612198688,4.557467519503057
0.49059001612222364,1.3416170873120532,-1.4840229370036575,4.6220548371911985
0.5040061869953442,1.2094492788124929,-1.4378023886317455,4.684304948454368
0.5161006797834691,1.0708425982234346,-1.3909593391472017,4.744818865080907
0.5268091057657034,0.926028149623104,-1.3435111504963926,4.804279906614246
0.5360693872619344,0.7752187738076528,-1.29546835143025,4.863454376724101
0.5438215750000109,0.6185959869447166,-1.246833807663009,4.923192942768518
0.5500075348694581,0.45629591621360654,-1.1976018782353237,4.984433266626369
0.5545704940315942,0.28839425649352723,-1.14775754556906,5.048204505684659
0.5574544365965295,0.11489020310440137,-1.0972755005122135,5.115634367263076
0.5586033386275735,-0.06431076587870363,-1.0461191568395827,5.187959456591694
0.5579602309687864,-0.24941546607850126,-0.9942395622736657,5.266539701773378
0.5554660763080014,-0.4407632107896734,-0.941574165255932,5.352877651602776
0.5510584442001046,-0.6388479101529543,-0.8880453887399042,5.448643382505796
0.5446699650985751,-0.8443421956967265,-0.8335589549148463,5.555705530674715
0.5362265431416079,-1.0581232840333459,-0.7780018996080992,5.676168403674706
0.5256453103012745,-1.2812993252320497,-0.7212402155713521,5.812413861737135
0.5128323170489539,-1.5152329361031236,-0.6631160769539808,5.967143984014757
0.4976799876879227,-1.7615544871441515,-0.6034446371138332,6.143415069585306
0.4800644428164812,-2.02214956791091,-0.5420104864179802,6.344642608734975
0.4598429471373721,-2.2990892854611444,-0.4785640603306305,6.574535470911644
0.4368520542827607,-2.5944421342217,-0.412818705621514,6.83687655132303
0.41090763294054367,-2.9098513411536677,-0.3444499401082837,7.134991247086613
0.381809119529007,-3.245667756236787,-0.2731000276374176,7.470614068113321
0.3493524419666391,-3.599291342655555,-0.19839388695628438,7.841669873668276
0.3133595285400836,-3.9622567994752766,-0.11997718821960161,8.238313431286503
0.2737369605453308,-4.315800091059545,-0.03759405390673658,8.636830529339061
0.23057895963473535,-4.626000545684874,0.04877425138665403,8.992858638840195
0.1843189541778866,-4.843266793927447,0.138702837775056,9.240458158106232
0.13588628623861213,-4.915126176772226,0.2311074193561183,9.309390022997514
0.08673502447088986,-4.814973917801693,0.32420131958609344,9.164274794648138
0.03858528529287294,-4.564878386057194,0.41584406753257486,8.835441423448996
-0.007063498567699007,-4.223081542181488,0.5041984817670648,8.401330075673954
-0.04929431398951389,-3.8486074501891663,0.5882117825238043,7.940136535211309
-0.08778038849140554,-3.479813032210023,0.6676131478759174,7.501243370955218
-0.12257851881350577,-3.1345417210255664,0.7426255815854697,7.106195146062553
-0.15392393602376145,-2.8180759089733396,0.8136875330460952,6.759908595476987
-0.18210469511349484,-2.5297439067502614,0.881286619000865,6.459716885118569
-0.20740213418099746,-2.2666205670300035,0.9458837878520507,6.200316638313428
-0.2300683398512975,-2.025254566203265,1.007886954235185,5.976004129491584
-0.25032088551333015,-1.8023741054514995,1.0676469955301007,5.781537833504878
-0.26834462656784513,-1.595124614318201,1.1254623738651495,5.612388256886879
-0.28429587271102713,-1.4011091869920984,1.1815862564340183,5.464740100102097
-0.29830696458094813,-1.2183541282152868,1.2362336574350392,5.33540803405692
-0.310490505863101,-1.0452521067288194,1.2895877377756084,5.22173306816146
-0.3209430269303892,-0.8805040655016214,1.341805068457223,5.121485049040505
-0.32974806758540537,-0.7230674114525005,1.393019918947628,5.0327793195523824
-0.33697874169993036,-0.5721123011510271,1.4433477121431517,4.954008552583211
-0.34269986471144065,-0.4269856100914238,1.4928877976689838,4.883788251734753
-0.3469697208123549,-0.28718143875861213,1.5417256801863313,4.820913747599517
-0.349841535199941,-0.15231689188794414,1.5899348176623265,4.764326573241413
-0.3513647041188204,-0.02211198492706229,1.6375780833947406,4.713088391940257
-0.35158582396809107,0.10362727951846909,1.6847089673141433,4.666360977482092
-0.35054955117290637,0.22502342853128204,1.7313725770889643,4.623391039696667
-0.3482993168875935,0.342140216918489,1.777606487485931,4.583498925380988
-0.3448779147184086,0.45499394366041745,1.8234414767397409,4.546070408047684
-0.3403279752818044,0.56356369751572,1.8689021808202178,4.510550917439413
-0.33469233830664724,0.6678007378430596,1.914007689994612,4.476441661640818
-0.32801433092821664,0.7676371314063639,1.9587721066110202,4.443297170689208
-0.320337959614153,0.8629936982245914,2.003205078317912,4.410723849418495
-0.3117080226319071,0.9537872682212587,2.047312316812097,4.3783791759824755
-0.30217014994969454,1.0399372147198909,2.0910961085719215,4.34597122666353
-0.29177077780249566,1.1213712099853168,2.134555820838557,4.3132582511913045
-0.2805570657026425,1.1980301410656844,2.1776884033504698,4.280048068340897
-0.2685767642919856,1.2698721297327784,2.2204888840338786,4.246197100046832
-0.25587804299465783,1.3368756163693947,2.262950855034347,4.211608913326385
-0.24250928683096387,1.3990414916782044,2.305066944167611,4.1762321915334635
-0.22851887191418183,1.4563942891295056,2.3468292660829455,4.140058107676613
-0.21395492902288676,1.5089824819711657,2.3882298471597116,4.103117120165696
-0.1988651042031751,1.556877958321661,2.4292610183613688,4.0654752528548865
-0.18329632461995848,1.6001747736531045,2.4699157708899175,4.027229954465873
-0.16729457688342744,1.638987299751571,2.5101880704345763,3.988505655917471
-0.15090470388591173,1.6734479016927095,2.550073126993751,3.9494491571106343
-0.13417022486898464,1.7037042789954253,2.5895676185648573,3.9102249775556137
-0.11713318207903038,1.7299166042023286,2.6286698683404133,3.8710107989129328
-0.09983401603700709,1.7522545826209808,2.6673799763295425,3.831993113703306
-0.08231147021079728,1.7708945422444387,2.7056999074665757,3.7933631751602777
-0.06460252478835289,1.7860166446005377,2.7436335392181785,3.7553133206255804
-0.04674235834234751,1.7978022871463863,2.7811866724244343,3.7180337171026463
-0.028764335470883647,1.8064317473880318,2.8183670095954607,3.681709554401343
-0.01070001799700333,1.8120820994736169,2.855184105139474,3.6465186901566957
0.007420802997732838,1.8149254165692246,2.891649292041041,3.61262973288241
0.025570057163425083,1.815127257527715,2.927775589369865,3.580200534695706
0.043721329738702235,1.8128454245309191,2.963577594716822,3.5493770546140304
0.061849783984011426,1.8082289695824472,2.9990713652629624,3.5202925462638337
0.0799320736798359,1.8014174218018613,3.034274290725601,3.4930670201261753
0.09794624789785451,1.7925402041289185,3.0692049609268626,3.467806929609287
0.1158716499391437,1.7817162069165868,3.1038830302229554,3.444605031760772
0.13368881200830957,1.769053486572456,3.1383290805405633,3.423540376787836
0.15137934687403412,1.7546490595096842,3.1725644843084417,3.40467838526069
