th1 (rad),w1 (rad/s),th2 (rad),w2 (rad/s)
3.745879553647772,-1.502541854096765,5.09189254527226,-2.0504234903714176
3.7308541351068043,-1.4323158095332738,5.071388310368546,-1.9970577214795742
3.7165309770114714,-1.364872238153551,5.05141773315375,-1.9406719829534467
3.702882254629936,-1.30018928619381,5.032011013324215,-1.8814812949459954
3.689880361767998,-1.2382350773923967,5.013196200374756,-1.819685256980237
3.677498010994074,-1.1789682945708906,4.994999347804954,-1.7554689267162003
3.6657083280483653,-1.1223387872457127,4.977444658537792,-1.6890037431688758
3.6544849401759083,-1.0682881886403195,4.960554621106103,-1.620448474228699
3.643802058289505,-1.0167505287523906,4.944350136363815,-1.5499501705496677
3.6336345530019813,-0.9676528330491626,4.9288506346583185,-1.4776451101544537
3.6239580246714898,-0.9209156989127085,4.914074183556774,-1.4036597203757715
3.6147488676823625,-0.8764538441437529,4.900037586353016,-1.3281114659459723
3.605984329240925,-0.8341766236756587,4.886756471693556,-1.251109694118143
3.5976425630041686,-0.7939885121747334,4.874245374752375,-1.172756429622891
3.5897026778824213,-0.7557895514388281,4.862517810456146,-1.0931471140186246
3.582144782368033,-0.719475762485695,4.8515863393159595,-1.0123712855721616
3.5749500247431762,-0.6849395229788069,4.841462626460238,-0.9305131972108017
3.5681006295133884,-0.6520699112036935,4.83215749448813,-0.8476523713219591
3.5615799304013516,-0.6207530182128739,4.823680970774911,-0.7638640912513974
3.555372400219223,-0.5908722300301519,4.816042329862396,-0.6792198302782348
3.5494636779189213,-0.5623084819702936,4.809250131559614,-0.5937876196383101
3.5438405930992185,-0.5349404872095378,4.803312255363231,-0.5076323578425531
3.5384911882271233,-0.5086449417543133,4.798235931784806,-0.42081606410964195
3.53340473880958,-0.4832967079151595,4.79402777114371,-0.3333980792184742
3.528571771730429,-0.45876897831264696,4.790693790351525,-0.24543521750148006
3.5239840819473023,-0.43493342233227517,4.78823943817651,-0.156981874059345
3.5196347477239796,-0.4116603168143971,4.786669619435917,-0.06809009159480388
3.5155181445558354,-0.388818662620569,4.7859887185199685,0.02119040845032108
3.51162995792963,-0.36627628856620625,4.786200622604472,0.11081222550488266
3.507967195043968,-0.34389994405787694,4.787308744859521,0.20073030502230677
3.504528195603389,-0.32155538162924946,4.789316047909744,0.29090198373104403
3.501312641787097,-0.29910743044059884,4.792225067747054,0.38128704929390483
3.498321567482691,-0.27642006170174876,4.796037938239993,0.47184780845256835
3.495557366865673,-0.2533564469071271,4.800756416324519,0.5625491575026376
3.493023802396602,-0.22977900974475368,4.806381907899545,0.6533586487212903
3.4907260122991546,-0.20554947256940978,4.812915494386758,0.7442465461571831
3.4886705175734605,-0.1805288984249847,4.820357959848329,0.835185863994353
3.4868652285892106,-0.15457772977264944,4.828709818488273,0.9261523805216159
3.4853194512914842,-0.1275558253397375,4.837971342293489,1.017124620578583
3.484043893038087,-0.09932249685722316,4.848142588499275,1.1080837992097696
3.483050668069515,-0.0697365479077319,4.859223426491373,1.1990137191385115
3.4823533025904374,-0.03865631766497103,4.871213563682758,1.2899006145701215
3.481966739413788,-0.005939732970454033,4.884112569828459,1.3807329337449807
3.4819073420840834,0.028555627037521042,4.897919899165909,1.4715010525823993
3.4821928983544588,0.06497244865971841,4.912634909691732,1.5621969116803143
3.482842622841056,0.1034535776956508,4.9282568788085355,1.6528135688605734
3.483877158618012,0.14414188275051615,4.944785014497141,1.7433446593734814
3.4853185774455175,0.18718007961635755,4.962218461090876,1.8337837558012369
3.487190378241681,0.23271050741845686,4.980556298648888,1.924123619636346
3.4895174833158658,0.28087484606904484,4.999797534845252,2.0143553364739843
3.492326231776556,0.3318137634411883,5.0199410882099915,2.104467326771725
3.495644369410968,0.3856664796060491,5.0409857614777085,2.19444422423209
3.4995010342070283,0.44257023451493394,5.062930203720029,2.2842656141014306
3.503926736552178,0.5026596447119037,5.085772859861043,2.3739046241147785
3.508953332999297,0.5660659341028407,5.109511906102191,2.4633263615270042
3.5146139923403252,0.6329160235651946,5.134145169717461,2.552486190746978
3.520943152575977,0.7033314643554083,5.15967003162493,2.6413278476386046
3.5279764672195313,0.7774272009687381,5.186083310101316,2.729781388687998
3.5357507392292185,0.8553101504530132,5.213381123988196,2.8177609760863236
3.5443038407337486,0.9370775873096318,5.241558733749059,2.905162503473901
3.553674616606845,1.0228153261753845,5.270610358783798,2.991861071761211
3.5639027698685988,1.1125956986125962,5.30052896950141,3.07770833020255
3.575028726854725,1.2064753256799998,5.331306052803435,3.1625297048396948
3.587093480111525,1.3044926946301887,5.362931349851832,3.2461215446082274
3.600138407057827,1.4066655561633978,5.395392565297914,3.328248224803337
3.614205062619461,1.5129881681898407,5.428675047545947,3.4086392581540395
3.6293349443013594,1.6234284229674272,5.462761440127487,3.4869864752783415
3.6455692285310337,1.7379249066465223,5.4976313048802705,3.562941348496809
3.662948477597499,1.8563839534118,5.533260718365239,3.6361125454512373
3.681512317131617,1.9786767701776518,5.569621843819751,3.706063811159172
3.7012990848333938,2.104636721648302,5.606682481931342,3.7723122883581173
3.722345452049877,2.2340568788506805,5.644405604814923,3.8343273954746757
3.7446860208383836,2.3666879462394474,5.6827488787696705,3.8915303884468635
3.768352900300778,2.5022366923539177,5.7216641826541395,3.943294736076045
3.793375267224317,2.6403650159758603,5.7610971300149,3.9889474377930707
3.8197789173840757,2.7806897830786,5.80098660439283,4.027771407033457
3.847585815214862,2.9227835690221564,5.841264318463165,4.05900903237767
3.8768136509050835,3.0661764351298757,5.881854408786942,4.081867012023456
3.9074754152563824,3.2103588589636147,5.922673078907176,4.0955225350631155
3.939579003846019,3.3547859235727806,5.963628304257807,4.09913085566278
3.9731268630817467,3.4988828532287304,6.004619612814436,4.091834273838455
4.008115691614034,3.6420519622573155,6.04553795555282,4.0727724991642384
4.044536211236607,3.7836810600153274,6.086265680544463,4.041094331053777
4.08237302183676,3.9231533289261606,6.126676623855,3.9959705401534507
4.121604555126022,4.059858663321074,6.1666363292565345,3.9366077779597672
4.162203141759233,4.193206423457036,6.206002407036133,3.862263273329011
4.204135205993803,4.322639519728512,6.2446250397694225,3.7722599919889714
4.247361601191089,4.447649694762475,6.282347639689312,3.6660018357690127
4.291838098138713,4.567793814285722,6.319007658047002,3.54298834085896
4.337516036281571,4.682710911426893,6.354437541455591,3.4028282008085013
4.38434314539584,4.792139656293598,6.388465823463676,3.245250796463748
4.432264541958776,4.895935850054771,6.420918331428314,3.070114773381942
4.481223900459323,4.994089481923625,6.451619479162133,2.8774125848218284
4.531164795278559,5.086740854661982,6.480393605010351,2.6672698366766516
4.582032203825179,5.174195299316484,6.507066303377118,2.439938252049739
4.633774156818344,5.256936083670991,6.531465685897616,2.195781135643204
4.686343517655054,5.335635289604113,6.553423497254048,1.9352503692169698
4.739699870551095,5.411162703831779,6.5727760009462175,1.6588541997477282
4.793811497589413,5.484593136027735,6.589364542943695,1.3671153611393536
4.84865742894969,5.557213037939789,6.6030356965550885,1.0605193464301084
4.904229559329088,5.630527825690117,6.61364089001939,0.7394528518960187
4.960534837585989,5.706271875518909,6.62103541853835,0.40413247358778365
5.017597556341178,5.78642373580291,6.625076743274228,0.05452359018121583
5.075461793699207,5.873229632400045,6.6256219791760405,-0.3097510062836552
5.134194090023207,5.969238772453473,6.622524469113204,-0.6895137032454037
5.193886477747741,6.077354130034555,6.61562933208075,-1.0861473170704918
5.254660019048086,6.200901981064181,6.604767858910045,-1.5017242479789008
5.316669038858728,6.343721613722354,6.589750616430256,-1.9391486520979158
5.380106254995951,6.510271410932397,6.570359129909277,-2.4023037218614784
5.445208969105275,6.705734337487967,6.546336092690662,-2.8961776896897473
5.512266312480155,6.936074401061783,6.517374315793765,-3.4268974978855784
5.581627056490773,7.207922713247941,6.483105340814909,-4.0014955151605935
5.653706283623253,7.5280075346137405,6.443090385663303,-4.627002282269069
5.72898635896939,7.901490239562499,6.396820362840612,-5.307961517605934
5.808001261365015,8.327890290773217,6.343740747664552,-6.0405108536220835
5.8912801642727475,8.792327653628089,6.283335639128331,-6.799842358457898
5.979203440809028,9.250016717967076,6.215337215543752,-7.518193086525686
6.071703607988699,9.609403776257086,6.140155284678495,-8.061133339621891
6.1677976457512695,9.743440259364982,6.059543951282276,-8.244046089994542
6.265232048344919,9.57101201918176,5.97710349038233,-7.948322947861749
6.360942168536737,9.15103887216867,5.897620260903713,-7.255831115864825
6.4524525572584235,8.6356858845645,5.825061949745065,-6.383694783065755
6.538809416104068,8.14354070314952,5.761225001914407,-5.504149429809595
6.620244823135564,7.722369991659831,5.706183507616311,-4.689902569360305
6.697468523052162,7.3782207723718365,5.6592844819227075,-3.9540242180824503
6.771250730775881,7.102243736189484,5.619744239741883,-3.2876593098129296
6.842273168137776,6.88266265907849,5.5868676466437535,-2.677188686303083
6.911099794728561,6.708647002244979,5.560095759780722,-2.110009422799716
6.978186264751011,6.571131032156793,5.538995665552725,-1.5759479660626652
7.043897575072579,6.462686635230138,5.523236185892098,-1.0672707440681897
7.108524441424881,6.377182372525448,5.512563478451416,-0.5783367066673781
7.172296265150135,6.3094545802614075,5.506780111384742,-0.10522009432524715
7.235390810952749,6.255046379905312,5.50572791044149,0.35461225802931934
7.297941274751802,6.210017922940925,5.509274033021783,0.8025618652843861
7.360041453981212,6.170817411073128,5.517299651674627,1.239111099491127
7.421749628091943,6.134200535590132,5.529690762669538,1.6640027065903231
7.483091633447844,6.097187117826335,5.546330789735441,2.0763984690801984
7.5440635046261075,6.057045224760015,5.567094774426243,2.475024748211647
7.604633956873708,6.011294278799719,5.59184502190836,2.858308607130386
7.664746899661705,5.957719730163188,5.620428107979664,3.2245050740445413
7.724324096963337,5.894392903205702,5.652673158720109,3.5718140407563994
7.783268025995394,5.81969080138166,5.688391299127673,3.8984843259501387
7.841464934009211,5.732311983078729,5.7273761423871745,4.202902441603354
7.898788053839998,5.63128601853487,5.7694051668032085,4.48366433634826
7.955100914025347,5.515975357871971,5.814241810166691,4.739629521910646
8.010260667604067,5.386069527164238,5.861638105385797,4.969958176818921
8.06412136287571,5.2415723153082485,5.911337687153987,5.174132786125197
8.116537086028792,5.082782989024653,5.963079015015238,5.351966451853875
8.16736491591904,4.910272627004504,6.016598679533777,5.503600162275425
8.216467642189084,4.724856506324516,6.071634681156532,5.629491116741626
8.26371620725233,4.527563237498957,6.127929592323948,5.730393812581983
8.30899183962732,4.319601148435376,6.185233530449768,5.807335173407546
8.352187851111673,4.10232234101593,6.243306882183843,5.861584667285078
8.393211074521831,3.8771849124883464,6.3019227288566935,5.894620204940718
8.431982923646714,3.6457140217677075,6.360868930906101,5.908090633684437
8.468440063864392,3.409462726134696,6.419949837242945,5.9037758077868006
8.502534691125739,3.1699737395467333,6.478987595320813,5.88354544196476
8.534234428521206,2.928743399526402,6.537823049740461,5.849318154305172
8.56352186251647,2.687189128966142,6.596316231283513,5.803022205994969
8.590393753806131,2.446621528599483,6.654346453343463,5.746559405609893
8.614859969092127,2.2082219541736143,6.711812047399562,5.681773459276395
8.636942188633864,1.9730260627398994,6.768629781992326,5.610423740437765
8.656672449261263,1.741913410182266,6.824734019396703,5.534165071059806
8.674091583363086,1.5156028014733487,6.880075670107301,5.454533704565494
8.68924761137782,1.294652779479702,6.9346210071529555,5.372939329884505
8.702194139172617,1.0794664139924968,6.9883504004518,5.290662613173727
8.712988803312541,0.8702994288794195,7.041257026583538,5.208857579757155
8.721691797601336,0.6672706756543729,7.09334560238111,5.128558018098169
8.728364504357879,0.47037400992960776,7.144631182562091,5.0506870515604385
8.733068244457176,0.2794907318094151,7.195138053077695,4.976069055232609
8.73586315177527,0.09440189069385369,7.244898743630022,4.905443173022702
8.736807170682209,-0.08520008929380754,7.293953175360248,4.8394777928110955
8.735955169789271,-0.2597008482471808,7.3423479532883595,4.778785444392228
8.7333581613068,-0.4295548240430467,7.390135807732282,4.7239376780126765
8.72906261306637,-0.595277360711905,7.437375184512408,4.675479543658177
8.723109839459251,-0.7574381202093521,7.48412997994899,4.633943305458687
8.715535458257158,-0.9166555596361554,7.530469413003576,4.5998609707749125
8.706368902660795,-1.0735920323098407,7.5764680227113255,4.573775061183862
8.695632982337697,-1.2289487970880562,7.622205773323164,4.556246761098316
8.683343494366817,-1.3834598278570045,7.667768240934147,4.5478600875935795
8.669508896088246,-1.5378827365273307,7.713246841810083,4.54921994293662
8.654130068722973,-1.6929842674860178,7.758739041239449,4.560940716184652
8.637200226048112,-1.849516577918881,7.804348448401295,4.583620337627594
8.618705060268923,-2.008178776759249,7.850184651777571,4.617792203768075
8.59862327250133,-2.169555917142139,7.896362573815252,4.663844121101606
8.576927713329908,-2.3340250350857787,7.943001015026268,4.721889649250676
8.553587462979051,-2.5016157505943566,7.990219911518775,4.791574132282792
8.528571305473108,-2.671813613020851,8.038135652841603,4.871798380972719
8.5018531693429,-2.8433024540665808,8.08685363665133,4.9603539572813755
8.473420144802233,-3.0136655179350265,8.136457176224145,5.053496588513935
8.443283489622884,-3.179113795739556,8.186992142109284,5.145552192309692
8.411492351665489,-3.33438590867143,8.238447664032382,5.228756607718301
8.378148492578774,-3.473038866905515,8.290735230109565,5.293636368024991
8.343418103909718,-3.588338152305513,8.343671593789814,5.330225085566211
8.307534722386663,-3.674739768865642,8.396973844645476,5.330111144105552
8.270787324698006,-3.729528162907715,8.450274956086531,5.28871473095944
8.233492043068928,-3.7538215741170062,8.503162103396125,5.206698647498902
8.195953827327758,-3.752329914898285,8.555229089871114,5.08965532033209
8.158430528178775,-3.7319780809424796,8.606125643074435,4.94622256640279
8.12111074736935,-3.7001610706031176,8.655587868738463,4.785687783068791
8.084109136663319,-3.6634082662677874,8.70344474656915,4.616154734678088
8.04747505400064,-3.626760472459799,8.749606293915932,4.443690290041153
8.011207449276043,-3.5937280957968234,8.794043196816343,4.272267384266181
7.975270168318074,-3.566552081646782,8.836765870659004,4.104119809774098
7.939604647501606,-3.546546015850983,8.877807068756745,3.9402045781247104
7.904139187343096,-3.5344039718429325,8.917209114537991,3.7806146403590426
7.868795147624667,-3.5304364399903547,8.955015260941583,3.6248916970733993
7.8334907832247636,-3.5347355964612084,8.991264177912317,3.472241929695064
7.798143427260151,-3.5472845712045804,9.025986597209268,3.3216754853719737
7.762670581548106,-3.5680266448141404,9.059203352062989,3.172092017926707
7.726990315099965,-3.596907337645271,9.090924272242257,3.0223303936570067
7.6910212417235115,-3.6338987156319424,9.121147576178826,2.8711956763600552
7.654682254567192,-3.679012164717423,9.149859532942427,2.7174723757504404
7.617892132920018,-3.732303615860978,9.177034256699931,2.559929975232843
7.580569096761408,-3.793873626075627,9.202633556452259,2.397324781963339
7.542630360500652,-3.8638636568602625,9.226606804271892,2.228400903585306
7.5039917239320495,-3.9424491808482305,9.248890813307746,2.0518924211231506
7.464567232123567,-4.029829775767458,9.269409737518977,1.8665284201964767
7.424268934365893,-4.126216058932736,9.288075021720942,1.6710423332887658
7.3830067737765654,-4.231813136276552,9.304785445053831,1.46418693491111
7.3406886424138,-4.346800174317576,9.319427314402942,1.2447562352911086
7.2972206406706235,-4.471305758246489,9.331874876755853,1.0116153574900273
7.252507583088159,-4.605378895107768,9.341991030330753,0.7637391773847652
7.206453794137081,-4.748955884952604,9.349628422104601,0.5002599753582315
7.158964235287555,-4.901823837678266,9.354631021858184,0.22052352150264037
7.109945996910772,-5.063582362376413,9.35683625707321,-0.07584815029323227
7.059310173287008,-5.233605863516601,9.356077775570277,-0.3888905149975221
7.006974114651841,-5.411009848255978,9.352188870420303,-0.718231818879971
6.952864016169282,-5.594625510915415,9.345006552231503,-1.0630364661078295
6.896917761060128,-5.782987371917537,9.334376187570424,-1.4219644733930124
6.839087887340953,-5.974338629261671,9.320156542836493,-1.7931554016811846
6.779344501048336,-6.1666578852802285,9.302224988819681,-2.174244332754704
6.717677922195534,-6.357708931013999,9.280482545492134,-2.562415006812639
6.654100832885394,-6.545112434816174,9.254858395424009,-2.9544912039222004
6.588649708537233,-6.726435111054896,9.225313483384786,-3.3470623239818025
6.521385357426683,-6.899288902051448,9.191842860144968,-3.736633825307641
6.452392468406169,-7.061430633185636,9.154476521891892,-4.11978889361579
6.381778162074312,-7.210852078552526,9.113278632955735,-4.49334550023546
6.309669641288787,-7.345851604969842,9.06834517795338,-4.85449346877358
6.236211125239088,-7.4650812754890055,9.019800243265646,-5.200899204755615
6.161560312484198,-7.567566831740178,8.96779125121809,-5.530770587295215
6.085884644166796,-7.652701518528913,8.912483545345138,-5.8428800150212
6.009357628981507,-7.720217550589647,8.854054745194926,-6.13654857291805
5.932155453475611,-7.770140734201637,8.792689259465746,-6.41159790258039
5.854454046133594,-7.802734282599349,8.728573280439942,-6.6682782654168085
5.7764267033076,-7.818437423839698,8.661890497785775,-6.907181596016416
5.6982423290692035,-7.817803359617736,8.59281868182561,-7.129147462266914
5.620064295473026,-7.801439871415544,8.521527207202942,-7.335168300056151
5.54204989675887,-7.769954685211517,8.44817552420238,-7.5262985493781915
5.464350349906755,-7.723906782413098,8.372912538708599,-7.703570733885474
5.387111282082624,-7.663764260404268,8.295876831369744,-7.867920300183088
5.310473639478581,-7.58986910039241,8.217197628367913,-8.020120246072334
5.234574948474657,-7.502409245307125,8.13699642590719,-8.160726212542356
5.159550856021586,-7.401398654814002,8.055389163781767,-8.290032735342567
5.085536869473446,-7.286666404381121,7.972488836428341,-8.408041662010657
5.012670205429635,-7.157856336055637,7.8884084198082345,-8.514444231803044
4.941091642069079,-7.0144391390489425,7.803263977490204,-8.608618857877723
4.870947250678589,-6.85573890469524,7.717177788911426,-8.689647080905406
4.802389861631637,-6.680976006500823,7.630281318102372,-8.756350283329532
4.735580101566629,-6.489327436630963,7.542717815269077,-8.807349339993845
4.670686827200319,-6.280004345875289,7.4546443218691385,-8.841148216715535
4.607886783741566,-6.052344429665292,7.366232839701983,-8.856240466046707
4.547363339444913,-5.805914082220742,7.277670435041515,-8.85123462047311
4.489304198622706,-5.540612237491845,7.189158088836784,-8.824990913445289
4.433898076247787,-5.256765116748749,7.100908179702331,-8.776758146557327
4.381330425080299,-4.955199486332432,7.013140598236758,-8.706296725047768
4.331778430216975,-4.6372822822011965,6.92607763098628,-8.613972872803533
4.285405607394963,-4.304917098949496,6.839937902258245,-8.500810594449497
4.242356436405467,-3.9604930346499785,6.75492979631375,-8.368492326603448
4.202751506058967,-3.606787985149457,6.671244873047716,-8.219305890721332
