th1 (rad),w1 (rad/s),th2 (rad),w2 (rad/s)
2.102041337106746,-1.1592815670976622,1.5862216275168366,-2.205815050738209
2.090448521435769,-1.2505824020867844,1.5641634770094546,-2.2177529004628287
2.077942697414901,-1.3439198139976571,1.5419859480048264,-2.2271876940911595
2.0645034992749247,-1.439390638318162,1.5197140710639148,-2.23383987255409
2.050109592891743,-1.5370858584476905,1.4973756723383738,-2.237422437536534
2.0347387343072665,-1.6370908177857162,1.4750014479630085,-2.2376407599359456
2.0183678261294093,-1.7394855286462791,1.452625040363649,-2.2341925425257747
2.0009729708429465,-1.844345080767812,1.4302831149383912,-2.2267679821716206
1.9825295200352684,-1.9517401484652448,1.408015435116675,-2.215050184828483
1.963012118550616,-2.0617375893233785,1.38586493326839,-2.198715897239739
1.9423947426573822,-2.1744011178845786,1.3638777742959927,-2.177436633828975
1.9206507314785364,-2.2897920238721423,1.342103407957703,-2.1508802972095618
1.897752811239815,-2.4079698845585114,1.3205946049856074,-2.118713418072362
1.8736731123942298,-2.5289931928771576,1.2994074708048837,-2.080604177707602
1.8483831804654582,-2.6529197840877896,1.2786014290278076,-2.03622642774515
1.8218539826245803,-2.779806890737211,1.2582391647503561,-1.9852649916477672
1.7940559137172083,-2.909710583870011,1.2383865148338784,-1.9274226271372314
1.7649588078785081,-3.0426842624771675,1.219112288562506,-1.862429155456933
1.7345319652537365,-3.1787757266881775,1.2004879970079367,-1.7900534305543823
1.7027442079868547,-3.3180222065872043,1.182587462702393,-1.7101190372293853
1.6695639859209825,-3.4604425123743807,1.165486272330099,-1.622524877839565
1.6349595607972387,-3.606025222016191,1.1492610235517033,-1.5272721304598382
1.5988993085770768,-3.7547115395290374,1.133988302247105,-1.4244994183364654
1.5613521931817864,-3.906371172995498,1.1197433080637402,-1.3145283675177755
1.5222884814518314,-4.0607693703840475,1.1065980243885625,-1.1979219304348963
1.481680787747991,-4.217523258566634,1.0946188050842136,-1.075557696266104
1.4395055551623246,-4.376046112762741,1.0838632281215526,-0.9487175109603515
1.3957450940346972,-4.5354795467266396,1.074376053011949,-0.8191924917545166
1.3503902985674308,-4.694616423563154,1.066184128094404,-0.6893981229810853
1.3034441343317993,-4.8518221690944525,1.0592901468645932,-0.5624866734833296
1.2549259126408547,-5.004969478402198,1.05366528012976,-0.4424332205821391
1.2048762178568329,-5.151410506202016,1.0492409479239386,-0.33405812394503553
1.1533621127948126,-5.288018794234754,1.0459003666844884,-0.24293697771097408
1.100481924852465,-5.411334637206848,1.0434709969073785,-0.1751474541538502
1.0463685784803967,-5.517834199208778,1.04171952236584,-0.13682301238464323
0.9911902364883088,-5.604308456420188,1.0403512922419935,-0.13353501425629768
0.9351471519241069,-5.668287491031228,1.0390159420994305,-0.1696007331328317
0.8784642770137946,-5.7084004864675455,1.0373199347681021,-0.2474832118537439
0.8213802721491191,-5.724554364398313,1.0348451026495646,-0.36746208733044705
0.764134728505136,-5.717863517151033,1.0311704817762601,-0.5276833159147143
0.7069560933336256,-5.690351752258155,1.025893648617113,-0.7245649638716818
0.650052575811044,-5.644526426648888,1.0186479989783963,-0.9534170577068295
0.5936073115445551,-5.582951166956215,1.009113828401328,-1.2090895337875127
0.537777799874993,-5.507913562787424,0.9970229330634528,-1.4865017515704035
0.4826986642471187,-5.421227743888844,0.9821579155477488,-1.780987775931831
0.42848638680823026,-5.324162808336782,0.9643480377884305,-2.0884640584387677
0.37524475872486246,-5.217462789960485,0.9434633972040428,-2.405465450001916
0.3230701308252576,-5.101420054822272,0.9194087427040236,-2.729103442300465
0.2720559302770349,-4.975971868918234,0.892117708281019,-3.0569906881157185
0.22229621158785257,-4.840800696152818,0.8615478013998618,-3.3871607020653443
0.17388820462632437,-4.695427947304384,0.8276761943792084,-3.7179981527401633
0.12693392515328053,-4.539297098941368,0.7904962128518067,-4.048185561080128
0.08154095416386684,-4.3718457143618465,0.7500143572410054,-4.376666254382332
0.03782249702024837,-4.1925678133724285,0.7062476946971821,-4.702620003977958
-0.004103181113475914,-4.001069091550322,0.6592214946574025,-5.025445808624303
-0.04411387202897914,-3.79711831031961,0.6089670365711595,-5.344744935315036
-0.08208505513217523,-3.5806991974823337,0.5555195872180091,-5.660295995924716
-0.11789204710699858,-3.3520687001292995,0.49891662725876196,-5.972012088389087
-0.15141273410829156,-3.1118295848012227,0.43919650637487107,-6.279867552069823
-0.1825310299563038,-2.8610281783183993,0.37639783085417283,-6.583778544206368
-0.2111413117394878,-2.6012911104732552,0.31056004541210913,-6.883417741891076
-0.23715422284422036,-2.3350170392886884,0.24172586799319837,-7.17794038815479
-0.2605043932371072,-2.0656375411119545,0.16994646411165049,-7.465600335860309
-0.28116076864822676,-1.79794947951787,0.0952904607530474,-7.7432487496753515
-0.29914026344340544,-1.5384885179871217,0.017857973256293874,-8.005749169190432
-0.3145251486232767,-1.295846070938577,-0.062199518435610446,-8.245430187146223
-0.32748360933266246,-1.0807236430379479,-0.1446538203070727,-8.451841294488895
-0.3382908457630419,-0.9054010323435958,-0.22917223325196165,-8.612238648566537
-0.34734485608647786,-0.7822831207766265,-0.315294619737627,-8.713254234704808
-0.35516768729424414,-0.7214759104156927,-0.4024271620846751,-8.743836854920096
-0.36238244639840106,-0.7280061897620281,-0.48986553063387606,-8.698685989548709
-0.3696625082960213,-0.7999660590464008,-0.5768523905293631,-8.580526540320392
-0.37766216888648535,-0.928750012078615,-0.662657655932567,-8.399732412229577
-0.3869496690072715,-1.1013844487972588,-0.7466549800548627,-8.17134539059824
-0.3979635134952441,-1.3036848728075612,-0.8283684339608451,-7.911161795887741
-0.4110003622233197,-1.5227868682198442,-0.9074800519197226,-7.632741949972462
-0.42622823090551815,-1.7484030640644543,-0.9838074714194472,-7.346100411679137
-0.44371226154616267,-1.9729971182052857,-1.0572684755362387,-7.057752558100945
-0.4634422327282155,-2.1913790570647627,-1.1278460011172482,-6.771429171338334
-0.4853560232988631,-2.4001350216549504,-1.1955602928306315,-6.488927179323509
-0.5093573735154127,-2.597107480304757,-1.2604495646238665,-6.2108369610423315
-0.5353284483184603,-2.780996492232218,-1.3225579342342897,-5.93707589646237
-0.5631384132407824,-2.9510805669266884,-1.3819286931989134,-5.66724548009767
-0.5926492189100493,-3.1070313329616095,-1.4386011479998901,-5.4008547243250735
-0.6237195322396654,-3.2487940681739906,-1.492609695243141,-5.137450970945049
-0.6562074729214052,-3.3765114787897206,-1.5439842049525914,-4.8766897379692775
-0.6899725877093025,-3.4904745316047894,-1.5927511023322842,-4.618365665308946
-0.7248773330253504,-3.5910894966273967,-1.6389347589853738,-4.362419240154534
-0.7607882279916244,-3.6788542749315396,-1.682558951386919,-4.1089288767300385
-0.7975767707409398,-3.754339776332641,-1.7236482401542195,-3.8580945795961865
-0.8351201685042662,-3.8181738914900456,-1.7622291859501813,-3.6102172801970847
-0.8733019074191666,-3.8710267483131457,-1.798331358752152,-3.3656765712029015
-0.912012174902298,-3.9135966567656304,-1.8319881244641811,-3.1249086762548566
-0.9511481414699543,-3.946596571141266,-1.8632372112267297,-2.8883858946361696
-0.990614107181367,-3.970741131515056,-1.8921210701730913,-2.6565983360513137
-1.0303215184965175,-3.9867344528326756,-1.9186870535336045,-2.4300384430745763
-1.0701888630248444,-3.9952588573351857,-1.9429874379643501,-2.2091885504675206
-1.1101414515981962,-3.9969647266221164,-1.9650793234690254,-1.9945115311598511
-1.1501110988644174,-3.992461607249823,-1.985024438780624,-1.7864444171313267
-1.1900357149369156,-3.9823106552630883,-2.0028888829519373,-1.5853947529351393
-1.2298588214895465,-3.967018462333691,-2.0187428304812887,-1.3917393349330573
-1.2695290061128834,-3.9470322771350483,-2.0326602238306193,-1.205824905474873
-1.3089993288842339,-3.9227366248887514,-2.0447184728853682,-1.0279703031741751
-1.3482266951331214,-3.894451337550935,-2.05499817591711,-0.8584695133468905
-1.3871712085086307,-3.8624310360784366,-2.063582871050579,-0.6975950130639779
-1.4257955188694151,-3.8268661509957407,-2.0705588211812187,-0.545600762174432
-1.4640641803793726,-3.787885621097802,-2.076014828802963,-0.40272415832276975
-1.5019430365903506,-3.745561461544801,-2.080042070386191,-0.26918625953559716
-1.5393986512057987,-3.6999154261357674,-2.082733932981547,-0.1451895986867538
-1.5763978054671564,-3.650927983829871,-2.0841858289684145,-0.030912993724433402
-1.612907085305455,-3.5985497630573597,-2.0844949589056587,0.073497075132017
-1.6488925829360286,-3.5427154661592404,-2.0837599881543385,0.16793866645960304
-1.6843197375976209,-3.483360005318776,-2.0820806014897424,0.2523698846003468
-1.7191533376508086,-3.420436263343804,-2.079556902643739,0.32682687584213527
-1.7533577002842466,-3.3539334692238287,-2.0762886338853175,0.391442874078474
-1.786897034976485,-3.2838947673605263,-2.072374205144533,0.4464662533378998
-1.8197359826500903,-3.210432252110185,-2.067909542611154,0.49227510715074196
-1.8518403051711922,-3.1337376519577416,-2.0629867915396467,0.5293857671167375
-1.8831776816907697,-3.0540870759445076,-2.0576929338684793,0.5584530278788433
-1.9137185524502147,-2.971838810946364,-2.052108403589691,0.5802607024363865
-1.9434369405596783,-2.8874240178528274,-2.0463057965653273,0.5957023908865101
-1.9723111807382065,-2.801331155704892,-2.040348772656462,0.6057537682983811
-2.0003244922952557,-2.7140858455053998,-2.0342912349734785,0.6114389635739507
-2.0274653507503095,-2.6262284622076786,-2.028176845337739,0.6137944119334503
-2.053727635372386,-2.5382918905557754,-2.0220389012184046,0.6138337437673056
-2.079110554277944,-2.4507815972056743,-2.0159005637807317,0.6125168258532108
-2.103618370250001,-2.3641595702329217,-2.0097753955221997,0.610725164872197
-2.12725996595233,-2.2788329329498223,-2.003668143873478,0.6092447754149396
-2.1500482952818283,-2.195147326455839,-1.9975756961193285,0.6087565605484943
-2.1719997685463865,-2.1133845994638873,-1.9914881305138437,0.609833434552517
-2.1931336145410256,-2.033764000332673,-1.9853897961683185,0.612942915065422
-2.2134712545443525,-1.9564459288421374,-1.9792603670176643,0.6184537157106247
-2.233035713832774,-1.8815373290910735,-1.973075829860558,0.6266449134077131
-2.2518510871236845,-1.8090979308344288,-1.9668093807264808,0.6377164593806727
-2.2699420664320287,-1.7391467197193087,-1.9604322161326742,0.651800067951372
-2.2873335336292215,-1.6716681960731636,-1.9539142154531604,0.6689697913561612
-2.304050215589953,-1.606618141822665,-1.9472245175395988,0.6892518341922926
-2.3201163970081797,-1.5439287439426572,-1.940331999197676,0.7126333598010438
-2.3355556844476064,-1.4835130181761862,-1.9332056655996654,0.7390701891171625
-2.3503908146293684,-1.4252685417709365,-1.9258149637084938,0.768493394732372
-2.3646435000470776,-1.3690805442623593,-1.91813002976117,0.8008148573895346
-2.3783343054897013,-1.3148244270160174,-1.9101218811872747,0.8359318879348309
-2.3914825497598615,-1.2623677908566777,-1.9017625623079264,0.8737310332062881
-2.404106227668428,-1.2115720511620736,-1.8930252519758635,0.9140911862354413
-2.416221948180049,-1.1622937146820356,-1.883884340113509,0.9568861146685795
-2.427844885326869,-1.1143853844699605,-1.8743154789668233,1.0019865101951362
-2.4389887391715686,-1.0676965503017808,-1.8642956138648719,1.0492616485349944
-2.449665704674586,-1.0220742128325735,-1.8538029973795218,1.0985807358164057
-2.459886446802912,-0.9773633811078511,-1.8428171900213577,1.1498140039608973
-2.4696600806139903,-0.9334074752283913,-1.8313190499817487,1.2028336055308873
-2.478994155366274,-0.8900486591069635,-1.8192907139264398,1.2575143476534254
-2.487894641957344,-0.847128122386533,-1.8067155704499056,1.3137342951955022
-2.496365923181209,-0.8044863256853533,-1.7935782274979506,1.3713752653142441
-2.5044107864380627,-0.761963219336599,-1.7798644748448083,1.4303232287633796
-2.512030418631429,-0.7193984426272372,-1.7655612425571745,1.49046862780148
-2.5192244030577013,-0.6766315081371969,-1.7506565562791596,1.5517066161014714
-2.5259907181390733,-0.6335019740605803,-1.735139490118145,1.6139372225850135
-2.5323257378796793,-0.5898496062825523,-1.719000117892295,1.6770654384802064
-2.538224233942505,-0.5455145314174553,-1.7022294635074928,1.7410012250093452
-2.5436793792566794,-0.5003373819157982,-1.6848194512573993,1.8056594378404862
-2.5486827530758376,-0.45415943465125413,-1.6667628568789945,1.8709596636713077
-2.55322434742235,-0.4068227450357988,-1.6480532602422815,1.9368259639497392
-2.557292574872708,-0.3581702796151089,-1.6286850006027842,2.003186520673169
-2.560874277668859,-0.3080460512028059,-1.6086531353960525,2.069973179355522
-2.5639547381808874,-0.25629526185943885,-1.5879534036024974,2.137120884529177
-2.5665176907994818,-0.2027644603522579,-1.5665821947572056,2.2045670034903955
-2.5685453354030043,-0.14730172209099088,-1.5445365247223017,2.2722505343526387
-2.570018352623914,-0.08975686087336683,-1.5218140193787753,2.3401111948097424
-2.570915921232648,-0.029981683046132405,-1.4984129074306778,2.4080883883177338
-2.5712157380631093,0.03216970415048069,-1.4743320235475004,2.4761200446873795
-2.5708940410216043,0.09684051727672952,-1.4495708231006266,2.5441413323668445
-2.569925635848837,0.16417084083302894,-1.4241294097769581,2.6120832400322973
-2.5682839274405067,0.23429707668057437,-1.398008577376635,2.6798710255598657
-2.565940956673701,0.3073512843023327,-1.3712098671210364,2.74742253110837
-2.5628674438306778,0.3834603975466486,-1.3437356418099526,2.8146463639976362
-2.5590328398552113,0.4627453040111123,-1.3155891781699762,2.881439944434158
-2.5544053868151004,0.5453197742593124,-1.2867747787256347,2.9476874230370327
-2.5489521890725073,0.6312892297186525,-1.2572979044952644,3.0132574736818376
-2.5426392967753206,0.7207493404981204,-1.227165329758446,3.0780009705396614
-2.5354318033703396,0.8137844476169092,-1.1963853200530494,3.1417485624698895
-2.5272939588941705,0.910465808381713,-1.1649678344283505,3.204308163243026
-2.5181893008103535,1.0108496690269746,-1.1329247527959203,3.26546238251564
-2.508080804120084,1.1149751753646246,-1.100270128970764,3.3249659301096206
-2.496931052366438,1.222862140183575,-1.0670204696696677,3.38254303496735
-2.484702430964602,1.3345086955639358,-1.0331950393199942,3.4378849300989955
-2.471357344008963,1.4498888691416387,-0.9988161900190042,3.490647465754179
-2.4568584553175463,1.5689501356157554,-0.9639097153614624,3.5404489246731385
-2.4411689539613888,1.6916110082759772,-0.9285052261147311,3.586868125205203
-2.424252843878629,1.8177587497655905,-0.8926365448626791,3.6294429097764747
-2.406075256380973,1.9472472962723906,-0.8563421157649144,3.6676691269296744
-2.386602783418249,2.0798955042920357,-0.8196654244956176,3.7010002240598356
-2.3658038283753284,2.2154858433153595,-0.7826554222550193,3.7288475739735016
-2.343648969942175,2.3537636703845153,-0.7453669465152842,3.7505816602978466
-2.3201113332383296,2.494437232446921,-0.7078611299123058,3.7655342432322207
-2.2951669609138605,2.6371785487265034,-0.6702057874799836,3.773001616771174
-2.2687951754265954,2.7816253268113784,-0.6324757713122718,3.772249049935362
-2.2409789221584817,2.9273840617475533,-0.5947532808129182,3.762516476404037
-2.211705081541006,3.0740344561767405,-0.5571281160488779,3.743025458102556
-2.180964736979239,3.221135280733132,-0.5196978614678524,3.7129873978911316
-2.1487533841719078,3.3682317671179645,-0.48256798748894103,3.6716129140484357
-2.115071066500728,3.514864591541663,-0.44585185834845664,3.6181222147792513
-2.0799224205853113,3.6605804641608493,-0.40967063620066413,3.5517562251735297
-2.0433166159437026,3.8049442920293846,-0.3741530739489288,3.4717881233578556
-2.005267173023409,3.9475528310456416,-0.3394351927153503,3.3775348393799836
-1.9657916447129524,4.088049689509568,-0.30565984432155047,3.2683679630657094
-1.9249111478178567,4.226141496431724,-0.27297616469089336,3.1437234002129775
-1.8826497328535394,4.361615007145455,-0.2415389306887636,3.0031090156464515
-1.839033582782085,4.494354893843853,-0.21150784053229907,2.846109413302793
-1.7940900338436465,4.624361967366644,-0.18304674639927113,2.672386934461972
-1.74784641416998,4.751771607713418,-0.1563228770546514,2.481677911833685
-1.7003286980928458,4.876872253334785,-0.13150609793631454,2.273783204263433
-1.6515599755594979,5.000123921279431,-0.10876826589368022,2.0485520564959523
-1.6015587363467034,5.122176907170378,-0.08828274532872069,1.8058583795725973
-1.5503369672749996,5.243891046112423,-0.07022416153299471,1.545568626350491
-1.4978980568138753,5.3663561944926235,-0.0547684752694898,1.267500540906279
-1.4442344948689492,5.490914894253593,-0.042093469860427016,0.9713721988582795
-1.3893253459264132,5.61918845348869,-0.03237974787184422,0.6567409685156224
-1.3331334613915262,5.753107814069774,-0.025812338186688,0.32293242512750414
-1.2756023832508285,5.89495036451016,-0.022583013935412958,-0.0310398841804172
-1.216652879605727,6.047382859339925,-0.02289341277721713,-0.406560997972844
-1.1561790510123278,6.213507932345179,-0.026959022756945568,-0.8055003303269179
-1.094043971688876,6.396905500399005,-0.03501402606021475,-1.2302803706100636
-1.030074916684886,6.6016468641175265,-0.047316829766315384,-1.683892372365587
-0.9640584480437107,6.832230841769453,-0.06415575348997125,-2.169782259497206
-0.8957361396260162,7.093332747404075,-0.08585357608494332,-2.691446651041204
-0.8248028121519754,7.389141109755011,-0.11276804259535536,-3.2514149181632925
-0.7509114010544252,7.721843729579508,-0.14528219177698828,-3.848993395366865
-0.6736929637586302,8.088495837337085,-0.18377212573065693,-4.475690171871635
-0.5928080053852594,8.475242447603797,-0.22852902744937328,-5.106890830191839
-0.5080555809092213,8.84864207882998,-0.27959793575129166,-5.689498768378175
-0.4195691601209215,9.148309821869276,-0.3364929234350734,-6.131662073303884
-0.3280860619022287,9.295302510509643,-0.39780954416811226,-6.315238151000622
-0.2351330367971323,9.233056464829756,-0.46096192567811844,-6.154984020608318
-0.14280247214883474,8.97814903898357,-0.5225117658842017,-5.6720721970393155
-0.053020981758999025,8.61392027409845,-0.5792324878545948,-4.98610801751836
0.03311822098198548,8.228118667235064,-0.6290935680297784,-4.226179995905813
0.11539940765433612,7.872493014999976,-0.6713553679888365,-3.4717831328556197
0.19412433780433588,7.565543959621308,-0.7060731993173928,-2.7552396901832106
0.269779777400549,7.308089677156333,-0.7336255962192249,-2.083229338055405
0.3428606741721123,7.094107922348364,-0.7544578895997789,-1.452216420681252
0.41380175339559594,6.915822652359846,-0.7689800538065914,-0.8559030020598217
0.48295997991919437,6.76563082598031,-0.7775390838271896,-0.288197026055374
0.5506162881789974,6.63667034031639,-0.7804210540877433,0.2558070727599282
0.6169829915821613,6.522881496101246,-0.777862983360144,0.7796339034607712
0.6822118065431737,6.418912937341691,-0.7700666443255363,1.2855159955822706
0.7464009359165906,6.320004955912914,-0.7572114843697135,1.7745709484600427
0.8096009854757198,6.2218950995465505,-0.7394657748851131,2.2469968830949245
0.8718199364711853,6.120756915705552,-0.7169958060541639,2.7022643390525056
0.9330275056282408,6.0131699090956765,-0.6899731626636388,3.1392996873872336
0.9931592047191975,5.896114315643251,-0.6585801657897665,3.5566597946522793
1.05212034787563,5.76698300792447,-0.6230135678432437,3.9526978185565644
1.1097901779548747,5.623602827781404,-0.5834865896576781,4.325718832430306
1.1660262062326887,5.464258198255445,-0.540229401333375,4.674122770623258
1.2206687882152432,5.287710751788108,-0.4934881736271425,4.996531456025461
1.2735458957331243,5.093209820997529,-0.4435228590668879,5.291896338568296
1.3244779939430995,4.880489905606034,-0.3906038956812049,5.559583991058131
