th1 (rad),w1 (rad/s),th2 (rad),w2 (rad/s)
6.090722844026858,1.373902611557116,2.0451140626511823,-0.9585395721354361
6.104461870142429,1.3625385521818436,2.035528666929828,-1.0675821706835813
6.118087255664247,1.3518621052108357,2.024852845222992,-1.1764465197819656
6.131605876716356,1.3420827690480457,2.0130883800251724,-1.2850749560523775
6.1450267044068365,1.333408746903978,2.0002376304646488,-1.3934263468005093
6.158360791875876,1.3260464094862505,1.9863033669966437,-1.501477672378556
6.171621255970739,1.3201999524845116,1.971288590272858,-1.6092255054693367
6.1848232554955835,1.316071269100069,1.9551963352181647,-1.7166873993925775
6.197983968186584,1.3138600547554735,1.938029461224239,-1.8239032067080174
6.2111225687341385,1.3137641585590856,1.9197904291571588,-1.9309363583110821
6.22426021031973,1.3159801943175071,1.900481065574048,-2.0378751417650145
6.237420012262905,1.3207044230596117,1.880102314156398,-2.1448340257554435
6.250627056493501,1.32813391927951,1.8586539738988435,-2.251955085336162
6.263908395686296,1.3384680344798103,1.836134423045482,-2.3594095901673557
6.277293076031094,1.3519101740865949,1.8125403271438083,-2.4673998253708453
6.29081217777196,1.3686699073082131,1.7878663288900998,-2.576161222067871
6.304498876845042,1.388965433788633,1.762104716669421,-2.6859648821655715
6.3183885311829275,1.4130264355361075,1.7352450678477653,-2.7971205893661564
6.332518795538289,1.4410973468509094,1.7072738619541037,-2.909980405167307
6.346929769006798,1.4734410775785338,1.6781740579024307,-3.024942953632131
6.361664179782584,1.5103432238646928,1.6479246283661093,-3.142458499643189
6.37676761202123,1.5521167921354613,1.6165000433696775,-3.2630349180333096
6.392288779942585,1.599107440312259,1.5838696941893444,-3.3872446280212016
6.408279854345707,1.651699195306264,1.5499972479091324,-3.5157325159894457
6.42479684629877,1.7103205208723362,1.514839922749238,-3.649224767939056
6.441900051507494,1.775450456865486,1.4783476750698474,-3.788538343691736
6.459654556076148,1.8476242827926448,1.4404622916329302,-3.93459048494952
6.478130798904075,1.9274376965699824,1.4011163867834349,-4.088407052004344
6.497405175869774,2.0155477123208625,1.3602323162633914,-4.251127449923962
6.517560652992983,2.112667151710921,1.3177210417641518,-4.424002135598253
6.538687324510092,2.2195473778997994,1.2734810204081692,-4.608375701812352
6.56088279828909,2.3369402399240182,1.2273972633900456,-4.805643532076867
6.58425220068833,2.465524221507695,1.179340828069277,-5.017161831878008
6.608907442903407,2.605770413452924,1.1291692097504968,-5.244077885767611
6.634965147037936,2.7577101056993842,1.0767284308928207,-5.487028115064685
6.66254224809493,2.920547887310513,1.0218581497421737,-5.745626232137985
6.6917477269680345,3.092047900859084,0.9644018874207938,-6.017640154494414
6.722668205976626,3.2676269994730807,0.9042254858758496,-6.297762570659667
6.755344475971357,3.4391700152676217,0.8412478601692529,-6.5759892380789955
6.789736176124033,3.5938389847595245,0.775487967788463,-6.835969816178371
6.825674565971628,3.71367681289137,0.7071282696266793,-7.0544241169716155
6.862811334100542,3.777440989594494,0.6365840284569632,-7.2035956467517686
6.900585743996487,3.7659390707425975,0.5645480719894455,-7.258491656641268
6.938245134703913,3.6697853071718938,0.49196315542303276,-7.207413306944336
6.974942987775632,3.494746749685537,0.4198890223535894,-7.059121143495613
7.009890455272488,3.2597445074711446,0.34929781091863327,-6.839904454201063
7.042487900347199,2.988699546721085,0.28089876637662264,-6.582316317968146
7.07237489581441,2.702563964367374,0.2150756031969412,-6.314351318898283
7.099400535458084,2.415758320154054,0.15193209000795838,-6.054776849155214
7.123558118659624,2.1364558392261364,0.09138432151640624,-5.813719723743557
7.144922677051886,1.8683881811203165,0.03324712427897067,-5.595256859282037
7.163606558863089,1.612626136509144,-0.0227054443138497,-5.399897467016122
7.17973282022818,1.3688407567213758,-0.07670441898401092,-5.2263095727794555
7.193421227795394,1.1360688210691199,-0.12896751471180548,-5.0723486883788995
7.204781916006085,0.9131363450732825,-0.17969100159559448,-4.935613400888771
7.2139132794568175,0.6988763003596236,-0.2290471356044822,-4.813720809701968
7.220902042460414,0.49223126658455996,-0.27718434370150186,-4.704428324197405
7.225824355126259,0.29229478663256087,-0.32422862694347593,-4.6056758837337535
7.228747302992585,0.09832143425020073,-0.3702853857808135,-4.515589445148695
7.229730517335087,-0.09027827151170884,-0.4154412802323004,-4.432467420608885
7.22882773461997,-0.27394969286481863,-0.4597659544383893,-4.354761202925277
7.226088237691322,-0.45300841009412735,-0.503313566467642,-4.281055267312135
7.22155815359038,-0.627655056360548,-0.5461241191407634,-4.210049370818899
7.215281603026775,-0.7979897888403754,-0.5882246128489524,-4.140543839097562
7.207301705138372,-0.9640261100544615,-0.6296300512399281,-4.071428157061588
7.197661444037827,-1.1257040213736513,-0.670344332810544,-4.001672702065202
7.18640440382409,-1.2829025961763572,-0.710361059831196,-3.930323282886212
7.173575377862327,-1.4354520812836662,-0.7496642926600582,-3.8564980741340134
7.15922085704949,-1.5831456147150416,-0.7882292734013984,-3.779386511842118
7.14338940090234,-1.7257506089326704,-0.8260231385198196,-3.698249716111635
7.126131894813013,-1.8630198046722326,-0.8630056356809359,-3.612422018607768
7.107501696766291,-1.9947019586226165,-0.8991298558670135,-3.5213131913273417
7.087554677180065,-2.120552092828022,-0.934342987780287,-3.4244109965539473
7.066349156251785,-2.240341207004354,-0.9685870977458265,-3.321283705881575
7.043945744181741,-2.353865337965027,-1.0017999348046422,-3.2115822685522293
7.020407090802091,-2.4609538431087667,-1.0339157574901645,-3.0950418459224944
6.995797552371003,-2.5614767868497736,-1.0648661759493894,-2.9714824691660247
6.970182784502505,-2.655351318943764,-1.0945810006410497,-2.8408086205936325
6.943629271313068,-2.742546950612387,-1.122989086846986,-2.7030075843506953
6.916203801806944,-2.823089656856039,-1.150019162690493,-2.558146458846248
6.887972905238383,-2.8970647601040547,-1.1756006272789554,-2.406367770277219
6.859002257637343,-2.964618580264657,-1.1996643049817277,-2.247883673336962
6.829356071834696,-3.0259588683490426,-1.2221431417150974,-2.082968770986599
6.799096483151206,-3.0813540743070615,-1.2429728294249633,-1.9119516292928416
6.768282942408135,-3.131131533690152,-1.2620923457178919,-1.7352051048536372
6.736971627071234,-3.175674691318484,-1.2794443967664282,-1.5531356399734224
6.7052148801580485,-3.215419512162822,-1.2949757531661623,-1.3661717128845854
6.67306068503642,-3.250850258841143,-1.308637470295008,-1.1747516550337782
6.640552182448008,-3.282494839998584,-1.3203849868453459,-0.9793110627768761
6.607727234048022,-3.310919952860314,-1.3301780974731146,-0.7802700349986592
6.574618034519419,-3.3367262549942156,-1.337980797823101,-0.578020460031694
6.5412507719694775,-3.360543803609841,-1.3437610024234181,-0.37291355460442743
6.507645333933379,-3.3830279946848854,-1.3474901379694624,-0.1652478255276651
6.47381505398653,-3.4048562182430953,-1.349142616224739,0.04474241583122188
6.439766491804099,-3.426725419604063,-1.348695192066427,0.25689790090484715
6.405499237608058,-3.4493507182549377,-1.3461262130573786,0.471144569507581
6.371005730425509,-3.4734651835973125,-1.3414147673623027,0.6875030390885234
6.336271078589536,-3.4998207947815403,-1.3345397369714174,0.9060973653923926
6.3012728706417205,-3.529190509652897,-1.3254787633174934,1.1271630371841916
6.265980965545191,-3.5623712164210932,-1.3142071329456515,1.3510540238241626
6.23035725338098,-3.60018710782626,-1.30069659270741,1.5782484423236678
6.194355382302717,-3.6434926451019547,-1.2849141082841733,1.809351950342217
6.157920455851698,-3.6931736745220594,-1.266820588780751,2.04509717367701
6.120988719106477,-3.7501442699547907,-1.246369617043981,2.286336130281091
6.083487276406929,-3.8153352552814543,-1.2235062557411702,2.5340203791099483
6.045333923854114,-3.889667728224384,-1.1981660519500708,2.7891599718808915
6.0064372465718705,-3.974000696425983,-1.1702744522312618,3.0527464342250887
5.966697239607611,-4.0690353968892214,-1.139746987889011,3.325615904965103
5.926006885638719,-4.175149249901466,-1.10649082883936,3.6082151688426602
5.884255393139704,-4.292119698549839,-1.0704086771509334,3.9002156218143997
5.841334196154206,-4.41868536331301,-1.0314065209327894,4.199902324736972
5.797147342521075,-4.551890248967301,-0.9894074976854197,4.503262927354298
5.751628440031403,-4.686195986088828,-0.9443748684118767,4.8027560224761565
5.704766480170514,-4.81248750108078,-0.8963473081871152,5.08593462092823
5.656641605159707,-4.917416900280857,-0.8454879619778328,5.334546659226106
5.607467436156898,-4.984009624590355,-0.7921424953855718,5.5254034518729735
5.557627339910995,-4.994689742870588,-0.736888460866842,5.6346285088167685
5.507680442482289,-4.936914876594665,-0.6805421757786744,5.645538614389096
5.458311293716342,-4.809007419621554,-0.6240867896347834,5.556759868781518
5.4102212195201265,-4.621834701964018,-0.5685191909469682,5.384490624815307
5.364002872500486,-4.394423802700173,-0.5146742846988152,5.156265684305028
5.320058634473485,-4.146782951758063,-0.4631116278557649,4.9008495516069335
5.278590804955904,-3.8947257413865923,-0.41410313233969553,4.64098693295644
5.239643547542038,-3.648362483804763,-0.3676932630101311,4.391317512563894
5.203159922703991,-3.4129821431530174,-0.3237800878844922,4.1596413657093345
5.169030101272461,-3.190623718593549,-0.2821836742273989,3.949141813361373
5.137123864086526,-2.9814336330385016,-0.24269225609378514,3.7603002599159803
5.107309527756141,-2.7845866407297177,-0.20508925349462534,3.592194188507354
5.079463661348844,-2.598835949327517,-0.16916731160955178,3.4432726444449333
5.053475301855569,-2.422815047315211,-0.13473458516510245,3.311782116039751
5.029247151382417,-2.255190972209616,-0.10161676400470493,3.1959831952494824
5.006695241660321,-2.094734397130667,-0.0696569320522101,3.094249939127818
4.985747897689014,-1.940345403163753,-0.03871443266093192,3.0051065656872664
4.966344443657376,-1.791056844807469,-0.008663367004059255,2.9272322929369587
4.948433875209301,-1.6460272311760136,0.020608955925310334,2.859451112736527
4.931973602897541,-1.5045294167617695,0.04920346705267561,2.800715390727427
4.916928308729923,-1.3659383029984191,0.07721062095994988,2.7500878427224014
4.903268925699939,-1.2297190847768293,0.10471149938717389,2.706724097243582
4.890971734852171,-1.0954166945813888,0.1317787403596097,2.6698568158046494
4.880017567906357,-0.9626466429164913,0.1584773085176562,2.6387817048190674
4.870391101477193,-0.8310872297254367,0.1848651255658469,2.6128454387329483
4.862080229179938,-0.7004729996126926,0.21099357995317636,2.5914353715902125
4.855075499183811,-0.5705892752188073,0.23690793366907847,2.573970861264615
4.8493696064316225,-0.4412675964457863,0.2626476422817246,2.5598960224064964
4.8449569304671645,-0.31238190154622036,0.2882466025057896,2.5486737368085213
4.841833111451702,-0.18384530058694812,0.3137333398738748,2.539780770739094
4.839994658445833,-0.05560730806632502,0.3391311475812657,2.532703871310131
4.83943858536517,0.07234858255770898,0.36445818629436705,2.526936734945193
4.840162071190747,0.20000708480712942,0.389727553643819,2.5219777590846677
4.842162142038818,0.3273231544168966,0.41494733123466565,2.517328502940695
4.845435373582987,0.45422395035706464,0.4401206162640726,2.5124927944216497
4.8499776130865575,0.5806107868353684,0.4652455442082891,2.5069764285602836
4.8557837209549115,0.7063611309917397,0.49031530849389193,2.500287408300082
4.862847332264829,0.8313306911797063,0.5153181825768928,2.4919366817742903
4.871160639176626,0.9553556314778249,0.5402375493946356,2.4814393317198236
4.880714195491405,1.0782549393517027,0.5650519427118339,2.46831617285988
4.891496744884922,1.1998329652107043,0.5897351044404326,2.4520957123843523
4.9034950745370285,1.3198821450232587,0.6142560615642761,2.4323164274156976
4.916693895987261,1.4381859102295378,0.6385792258384331,2.408529311845229
4.931075755089556,1.5545217829610551,0.6626645189568854,2.3803006433301097
4.946620972919167,1.668664649041587,0.6864675253901865,2.3472149196017202
4.963307619409583,1.7803901963389772,0.7099396745862038,2.30887791147081
4.981111521372973,1.8894785016277864,0.7330284537009119,2.2649197778247188
5.000006306389251,1.995717745005933,0.755677651479159,2.214998185206865
5.019963483839311,2.098908026834355,0.7778276333312276,2.1588013709150986
5.040952564107654,2.1988652578757857,0.7994156470403786,2.0960510836422683
5.062941216686411,2.295425088574944,0.8203761578768013,2.0265053293002278
5.085895467572161,2.388446838126404,0.8406412111698036,1.9499608417949013
5.1097799359534255,2.477817378161419,0.8601408195877527,1.8662551893967925
5.13455810973504,2.5634549198161785,0.8788033714817206,1.7752684175413407
5.160192658933202,2.6453126471473585,0.896556055657134,1.6769241193001125
5.186645785404675,2.72338213513275,0.9133252968501352,1.5711898165992113
5.213879606756002,2.797696487872178,0.9290371950161274,1.4580765299536103
5.241856571634724,2.8683331332904465,0.9436179603156635,1.3376374135226856
5.270539902967628,2.93541621589194,0.9569943344508903,1.2099653370064622
5.299894065126548,2.999118540074477,0.9690939878209549,1.075189307223849
5.329885250527292,3.059663034053664,0.9798458808931934,0.9334696404150811
5.3604818808678285,3.1173237290195615,0.9891805772973442,0.7849918207852604
5.391655118158024,3.172426279628062,0.9970304955051968,0.6299590099332575
5.423379380954304,3.225348089586852,1.0033300856045295,0.46858320293572964
5.455632861850173,3.2765181486091195,1.0080159176338868,0.30107505642161003
5.4883980433362645,3.326416732587603,1.0110266681981028,0.127632437802504
5.52166221066214,3.3755751654235175,1.0123029925761278,-0.051572241446779216
5.555417962316375,3.424575886418568,1.01178727016166,-0.23640584595293757
5.589663721180561,3.4740531095345877,1.0094232117021305,-0.4267894451056491
5.624404252275907,3.5246943983625556,1.0051553172510739,-0.6227143413684614
5.659651196259532,3.5772435114828154,0.9989281738373893,-0.824259242892629
5.695423631374361,3.632504894394373,0.990685581408463,-1.0316086910973628
5.731748680318304,3.6913502012732957,0.9803694944974893,-1.2450729217091427
5.768662182331037,3.754727211900738,0.9679187652803979,-1.465109387125446
5.806209454450045,3.8236714443622684,0.9532676714091435,-1.6923461618219595
5.8444461688936675,3.899320609051111,0.9363442097909239,-1.9276073232879118
5.883439374984179,3.982931719668512,0.9170681365580448,-2.171940024589588
5.923268692180864,4.075900011381354,0.8953487363121488,-2.426642121673812
5.964027692294677,4.179777511835711,0.8710823150954107,-2.693287462697147
6.005825467413034,4.296286600583482,0.8441494404684392,-2.9737424959700074
6.0487883334188695,4.4273191272668,0.8144120155087391,-3.2701612434966836
6.093061524691538,4.5749027268886415,0.7817104030737723,-3.584933251251118
6.138810551960424,4.7410995002360155,0.745861070561261,-3.9205361578916857
6.186221546962784,4.927772668226477,0.7066557089823442,-4.2792032633891095
6.235499273645049,5.136106407291138,0.6638636763484531,-4.662246083421276
6.28686033771796,5.365686932807961,0.6172412155142404,-5.068764093162756
6.34051720704604,5.6128639655381365,0.5665535745826128,-5.493349649514381
6.396645846701421,5.868107390152942,0.511620078087469,-5.922390629355159
6.455326920602951,6.1124687878096085,0.45239617179391745,-6.329128028187303
6.516451608481047,6.314701995245504,0.3891048915120444,-6.6696532239784005
6.5795986284335015,6.433445154215252,0.3224083592722604,-6.8860248743831605
6.643933079975654,6.430317312672899,0.2535481105284288,-6.924707491586626
6.708236253102383,6.2918678987653385,0.18430103561256253,-6.767394051110298
6.771154932090036,6.041836901204805,0.11662709510145955,-6.448144407276074
6.831573301102084,5.727636715243264,0.05214565102869881,-6.03430320636843
6.888849668254517,5.394700110706354,-0.008197381034985497,-5.590437519507663
6.942796669361581,5.072355466676949,-0.06410175623006213,-5.158499771158418
6.993520224028351,4.774340641427772,-0.11568675394164632,-4.758535285042853
7.041263630442629,4.504599416682335,-0.16327210679207485,-4.396797823155696
7.086309624609452,4.26224193023556,-0.2072400850236318,-4.0726989316178654
7.128932043911807,4.044457283023327,-0.24796707433981047,-3.7828939295632966
7.16937661674204,3.8479426404226555,-0.28579601363544344,-3.5232928328316033
7.207856043146267,3.669518440824507,-0.3210289419637595,-3.289931700472811
7.244551227554512,3.506350304758061,-0.35392825896848756,-3.079292034143123
7.279614730602092,3.3559962321156167,-0.3847211793099188,-2.88837379810152
7.313174692923249,3.2163832919421043,-0.41360491729093396,-2.7146679309302604
7.34533852584267,3.085760853056013,-0.44075159660023655,-2.5560943975907318
7.37619613437323,2.9626504300326113,-0.46631254057614385,-2.41093412782822
7.405822638673556,2.8457999212721052,-0.49042188185442603,-2.2777659690878167
7.434280637886277,2.7341445965815887,-0.5131995415453042,-2.155412172033537
7.4616220838520935,2.626774928967567,-0.5347536632656396,-2.042892731806686
7.487889833141769,2.522910522161174,-0.5551825905837064,-1.9393877035006963
7.51311893836338,2.4218791606706915,-0.5745764676187134,-1.8442062762220952
7.537337729970087,2.3231000375245907,-0.5930185303809343,-1.7567614146827693
7.560568730345333,2.226070332818375,-0.610586144527762,-1.6765490304645623
7.582829433673516,2.130354453223287,-0.6273516348324076,-1.6031308269601732
7.604132978205749,2.0355753707050397,-0.6433829431020094,-1.53612013212169
7.624488731912799,1.9414076087109668,-0.6587441444232263,-1.4751701778701873
7.6439028079999085,1.8475715149302514,-0.6734958462019281,-1.4199644021911153
7.662378523149211,1.7538285333978771,-0.6876954902238394,-1.370208441971049
7.67991680848319,1.65997724804144,-0.7013975746435498,-1.3256235553743627
7.696516580963604,1.5658500175411352,-0.7146538101972935,-1.2859412659868696
7.712175081139016,1.4713100599720985,-0.7275132228571621,-1.2508990606581607
7.726888181738737,1.3762488770432717,-0.7400222134637437,-1.2202370020209337
7.7406506705091696,1.2805839333255455,-0.752224583483953,-1.1936951375994822
7.753456509842425,1.1842565268030467,-0.7641615348599479,-1.171011602322468
7.765299075110455,1.0872298042328106,-0.7758716508831726,-1.151921321811636
7.776171373152783,0.9894868887960575,-0.7873908641012889,-1.1361552313771104
7.786066242040744,0.8910290988513745,-0.79875241641506,-1.1234399312766288
7.794976533029257,0.7918742456299299,-0.8099868157278263,-1.1134977033160003
7.8028952754855565,0.6920550047437208,-0.8211217927609863,-1.106046817903479
7.8098158255329935,0.5916173616566024,-0.8321822609400211,-1.1008020646728485
7.815731999149559,0.49061913500610665,-0.8431902815867496,-1.0974754440671914
7.82063819049962,0.38912858404871176,-0.8541650360274214,-1.095776962018967
7.824529476340107,0.2872231077008709,-0.8651228056476111,-1.0954154751696052
7.827401707417116,0.18498804281680314,-0.8760769603993072,-1.0960995399677498
7.829251587845284,0.08251556862348022,-0.8870379557989847,-1.0975382254389336
7.830076743531518,-0.020096277245848823,-0.898013338053374,-1.0994418563606656
7.8298757807590595,-0.12274446779495518,-0.9090077566169806,-1.1015226609084645
7.82864833608111,-0.22532174010212458,-0.9200229832260652,-1.1034953044459448
7.826395118680089,-0.3277172355314957,-0.9310579362705247,-1.1050772988912467
7.823117946324774,-0.42981703248090253,-0.9421087092594371,-1.1059892848732296
7.818819775999965,-0.5315045810366752,-0.9531686021081694,-1.1059551915612593
7.813504730189599,-0.6326610526437315,-0.964228154023782,-1.1047022864769998
7.8071781196631616,-0.7331656216711362,-0.975275176888552,-1.1019611346362006
7.799846463446451,-0.8328956994586068,-0.986294788234914,-1.097465492877022
7.791517506451864,-0.9317271449599569,-0.9972694431636843,-1.090952171051755
