th1 (rad),w1 (rad/s),th2 (rad),w2 (rad/s),a1 (rad/s^2),a2 (rad/s^2)
2.082726253444377,-1.615480107383783,2.128228030081702,-2.5990758104216183,-8.336359189425336,-0.1074199184878254
2.0665714523705394,-1.6988436992780365,2.102237271977486,-2.6001500096064967,-8.442516508654775,-0.11412655024959147
2.049583015377759,-1.7832688643645842,2.076235771881421,-2.6012912751089927,-8.553367325142338,-0.10904300137163123
2.0317503267341133,-1.8688025376160076,2.050222859130331,-2.602381705122709,-8.668106506867916,-0.09302661091181084
2.0130623013579534,-1.9554836026846867,2.024199042079104,-2.603311971231827,-8.785743405202657,-0.0672124246490697
1.9935074653311065,-2.043341036736713,1.9981659223667858,-2.6039840954783178,-8.905096158166153,-0.033030183121042826
1.9730740549637393,-2.132391998318375,1.9721260814120027,-2.6043143973095284,-9.024784713920646,0.0077761645411267
1.9517501349805555,-2.2226398454575813,1.9460829374389075,-2.604236635664117,-9.143222667858064,0.053126832275327045
1.9295237365259796,-2.314072072136162,1.9200405710822663,-2.6037053673413637,-9.258608158747597,0.10058317135520391
1.906383015804618,-2.406658153723638,1.8940035174088528,-2.6026995356278118,-9.368914255489244,0.14732433172677117
1.8823164342673817,-2.5003472962785303,1.8679765220525746,-2.6012262923105443,-9.471879494810377,0.1901251348596748
1.8573129613045964,-2.595066091226634,1.8419642591294692,-2.5993250409619475,-9.56499950851357,0.2253372017953692
1.83136230039233,-2.6907160863117694,1.8159710087198497,-2.5970716689439937,-9.645521009163742,0.24887597703355369
1.8044551395292123,-2.787171296403407,1.79000029203041,-2.594582909173658,-9.710439780578302,0.25621694883942975
1.7765834265651783,-2.88427569420919,1.7640544629386734,-2.592020739685264,-9.756504728000563,0.24240505518336117
1.7477406696230864,-2.9818407414891954,1.7381342555418207,-2.58959668913343,-9.780230450166814,0.2020819206633319
1.7179222622081944,-3.0796430459908635,1.7122382886504863,-2.587575869926797,-9.777921148464573,0.12953609801413998
1.6871258317482858,-3.1774222574755093,1.6863625299512184,-2.5862805089466554,-9.745708909121861,0.018781753127685444
1.6553516091735307,-3.274879346566728,1.660499724861752,-2.5860926914153786,-9.67960937942135,-0.13632894024212064
1.6226028157078636,-3.3716754403609417,1.634638797947598,-2.5874559808177997,-9.575597484275999,-0.34195524713148595
1.5888860613042541,-3.4674314152037016,1.60876423813942,-2.5908755332891147,-9.429704964539672,-0.6040763865817459
1.5542117471522172,-3.5617284648490983,1.5828554828065289,-2.596916297154932,-9.238140051937778,-0.9282590583845733
1.5185944625037262,-3.654109865368476,1.5568863198349796,-2.6061988877387776,-8.997427474580649,-1.31938776427507
1.4820533638500415,-3.7440841401142824,1.5308243309575917,-2.6193927653815283,-8.70456426588653,-1.781366581466722
1.4446125224488986,-3.831129782773148,1.5046304033037765,-2.6372064311961956,-8.357183738992246,-2.3168066149287716
1.406301224621167,-3.91470162016307,1.4782583389918145,-2.6603744973454835,-7.953716888012651,-2.9267189697358202
1.3671542084195363,-3.9942387890431967,1.4516545940183596,-2.6896416870428417,-7.493537968883864,-3.6102378005310833
1.3272118205291044,-4.069174168732036,1.4247581771479312,-2.7257440650481524,-6.9770797925422405,-4.364400669211316
1.286520078841784,-4.1389449666574585,1.3975007364974497,-2.7693880717402655,-6.405905003587579,-5.18401294823165
1.2451306291752096,-4.203004016693335,1.369806855780047,-2.8212282012225818,-5.782722769253769,-6.061618539448824
1.2031005890082762,-4.260831244385872,1.341594573767821,-2.88184438661707,-5.111345890936194,-6.987590575881968
1.1604922765644174,-4.311944703295234,1.3127761299016503,-2.9517202923758896,-4.396590830544879,-7.950343753012887
1.117372829531465,-4.355910611600683,1.2832589269778913,-3.0312237299060185,-3.644131405805098,-8.936656115901936
1.0738137234154583,-4.392351925658733,1.252946689678831,-3.120590291065038,-2.860324458170775,-9.932074772433124
1.029890204158871,-4.4209551702404415,1.2217407867681807,-3.2199110387893692,-2.052031101290387,-10.921369512828592
0.9856806524564665,-4.441475481253345,1.189541676380287,-3.3291247339176553,-1.2264590521620513,-11.888992611805678
0.9412658976439331,-4.453740071774965,1.1562504290411104,-3.448014660035712,-0.3910495627091301,-12.819503094345428
0.8967284969261834,-4.457650567402057,1.1217702824407534,-3.5762096909791663,0.4465730414771565,-13.697919157528927
0.8521519912521628,-4.453184836987285,1.0860081855309618,-3.7131888825544554,1.2785792033706729,-14.50997188884359
0.8076201428822899,-4.440399044953578,1.0488762967054173,-3.8582886014428914,2.0968384266979028,-15.242244939256752
0.7632161524327541,-4.419430660686599,1.0102934106909884,-4.010711050835459,2.892757918013076,-15.88219644946095
0.7190218458258881,-4.390503081506468,0.9701863001826339,-4.169533015330068,3.6570711448696356,-16.418069908699916
0.6751168150108234,-4.3539323700577715,0.9284909700293331,-4.333713714417067,4.379598084403026,-16.838709257713333
0.6315774913102458,-4.310136389213741,0.8851538328851625,-4.502100806994201,5.049004023792251,-17.133300878383046
0.5884761274181084,-4.259646348975819,0.8401328248152204,-4.673433815778031,5.652588551139778,-17.29107232562419
0.5458796639283502,-4.203120463464421,0.7933984866574402,-4.8463445390342725,6.176141847862237,-17.300986286675315
0.503848459293706,-4.141359044985799,0.7449350412670974,-5.019354401901026,6.603912387568274,-17.151479668461466
0.46243486884384805,-4.075319921110116,0.6947414972480872,-5.1908691985856406,6.918738827917264,-16.830312464163494
0.4216816696327469,-4.006132532830943,0.6428328052622307,-5.359172323227275,7.102408141489514,-16.324608031507918
0.3816203443044375,-3.9351084514160477,0.589241082029958,-5.522418403542354,7.136308737827487,-15.62118185688977
0.342269259790277,-3.863745364037773,0.5340168979945344,-5.678630222111252,7.002445607348013,-14.70726232863776
0.30363180614989926,-3.793720907964293,0.4772305957734219,-5.82570284539763,6.6848655058043995,-13.57169291057075
0.26569459707025633,-3.726872252906249,0.41897356731944563,-5.961419774503337,6.171493132747008,-12.206655887182745
0.22842587454119384,-3.665157321578779,0.3593593695744123,-6.0834863333751645,5.456295063333397,-10.60986055972636
0.19177430132540604,-3.610594370945445,0.2985245062406606,-6.189584938972428,4.541566383357326,-8.786990762616119
0.1556683576159516,-3.5651787071118717,0.23662865685093634,-6.277454846598589,3.4399929257126747,-6.754027642129876
0.12001657054483289,-3.530778777854745,0.17385410838495047,-6.3449951230198876,2.1760220985571026,-4.538905729968839
0.08470878276628543,-3.5090185568691736,0.11040415715475159,-6.390384180319576,0.786041609241067,-2.1819039498719244
0.0496185971975937,-3.501158140776763,0.046500315351555827,-6.412203219818296,-0.6830183347708854,0.2657003067916547
0.014607015789826067,-3.507988324124472,-0.01762171684662714,-6.409546216750379,-2.1767536859541754,2.744844735369634
-0.02047286745141865,-3.5297558609840136,-0.08171717901413093,-6.382097769396683,-3.637710388388996,5.193404363731007
-0.05577042606125879,-3.5661329648679034,-0.14553815670809778,-6.330163725759373,-5.010452523055073,7.551593490543587
-0.09143175570993782,-3.616237490098454,-0.20883979396569152,-6.254647790853937,-6.246346985511066,9.766970303012789
-0.12759413061092237,-3.6787009599535647,-0.2713862718742309,-6.156978087823809,-7.307201955991861,11.798065747773979
-0.16438114021045802,-3.7517729795134835,-0.33295605275246903,-6.038997430346069,-8.167221934411117,13.616068923006386
-0.20189887000559287,-3.8334451988575946,-0.39334602705592975,-5.902836741116006,-8.813190407819055,15.20454613765139
-0.2402333219941688,-3.9215771029357853,-0.4523743944670898,-5.750791279739492,-9.24318776144928,16.557632461801653
-0.27944909302352666,-4.014008980550278,-0.5098823072644847,-5.585214955121475,-9.46437651250575,17.67737102441997
-0.31958918282902943,-4.108652745675335,-0.5657344568156994,-5.408441244877276,-9.49041512668462,18.57086951408661
-0.36067571028578277,-4.203556896942181,-0.6198188692644722,-5.22273254973641,-9.33895054334836,19.247773971401156
-0.40271127925520456,-4.2969464023756645,-0.6720461947618362,-5.030254810022399,-9.029470977320837,19.71833488470748
-0.44568074327896123,-4.387241112148873,-0.7223487428620602,-4.833071461175324,-8.58164229604012,19.992143014914117
-0.48955315440044994,-4.473057535109274,-0.7706794574738134,-4.633150031026183,-8.014138101003205,20.077481114649412
-0.5342837297515427,-4.553198916119306,-0.8170109577840752,-4.432375219879689,-7.343911243994788,19.981174669849256
-0.5798157189127358,-4.626638028559253,-0.8613347099828721,-4.232563473181196,-6.585832035032231,19.70881238722028
-0.6260820991983282,-4.692496348909576,-0.903660344714684,-4.035475349308993,-5.75262006417509,19.265223217729947
-0.673007062687424,-4.750022549551327,-0.944015098207774,-3.8428231171316938,-4.855008388582175,18.655122648042312
-0.7205072881829373,-4.798572633437148,-0.9824433293790908,-3.656271890651271,-3.9020910498924444,17.883864246185695
-0.7684930145173088,-4.837593543936072,-1.0190060482856036,-3.477433248189414,-2.9018118293908697,16.95824600709514
-0.8168689499566695,-4.866611662229981,-1.0537803807674977,-3.3078507881184627,-1.8615514406996843,15.887322230060086
-0.8655350665789693,-4.8852271766369775,-1.0868588886486823,-3.148977565817862,-0.7887622115247882,14.683161283715835
-0.914387338345339,-4.893114798752225,-1.118348664306861,-3.0021459529807033,0.30841376096612216,13.361471733369337
-0.9633184863328613,-4.890030661142564,-1.148370123836668,-2.86853123564701,1.4206202357970765,11.942001185755428
-1.012218792944287,-4.875824458784593,-1.177055436193138,-2.7491112237894555,2.5369403335753873,10.448603722022712
-1.0609770375321328,-4.8504550554488395,-1.2045465484310325,-2.6446251865692285,3.6448053488878545,8.908883487307108
-1.1094815880866211,-4.814007001959961,-1.2309928002967248,-2.5555363516961576,4.7302108088233785,7.353361529129406
-1.1576216581062206,-4.766704893871728,-1.2565481638136864,-2.4820027364048634,5.77824693555973,5.814180607608694
-1.2052887070449378,-4.70892242451613,-1.281368191177735,-2.4238609303287766,6.773893243935718,4.3234480228829915
-1.2523779312900991,-4.641183492076773,-1.3056068004810228,-2.3806264500999466,7.702970526847302,2.9113988165282754
-1.298789766210867,-4.5641537868082995,-1.3294130649820224,-2.351512461934664,8.55310477375626,1.6046157042253593
-1.34443130407895,-4.478622739070737,-1.352928189601369,-2.3354663048924102,9.314550241491375,0.4245475769423874
-1.3892175314696573,-4.385477236655823,-1.376282852650293,-2.3312208291229863,9.980747108534116,-0.6134804250433195
-1.4330723038362156,-4.285669765570482,-1.3995950609415229,-2.3373556333734196,10.548545067450702,-1.5006630574190227
-1.4759290014919204,-4.180184314895975,-1.4229686172752571,-2.35236226394761,11.018090973267277,-2.2345218752032237
-1.5177308446408802,-4.070003405163302,-1.4464922399147333,-2.374707482699642,11.39243732508814,-2.8182209951280965
-1.5584308786925132,-3.9560790319124206,-1.4702393147417296,-2.402889692650923,11.676965153595948,-3.2595489348760367
-1.5979916690116374,-3.839309380376461,-1.4942682116682389,-2.4354851819996832,11.878725218107267,-3.569741133251498
-1.636384762815402,-3.7205221281953884,-1.5186230634882356,-2.4711825933321983,12.00578932245411,-3.76229942032408
-1.6735899840973558,-3.6004642349708473,-1.5433348894215575,-2.508805587535439,12.066678043171134,-3.851924455288017
-1.7095946264470643,-3.479797454539136,-1.5684229452969118,-2.5473248320883193,12.069901859030434,-3.85362998553133
-1.7443926009924557,-3.3590984359488316,-1.593896193617795,-2.5858611319436324,12.023626801550332,-3.782065191284616
-1.7779835853519441,-3.2388621679333283,-1.6197548049372315,-2.6236817838564788,11.93545704066158,-3.651039554952519
-1.8103722070312773,-3.1195075975267126,-1.6459916227757962,-2.660192179406004,11.812315954793975,-3.4732250822666506
-1.8415672830065444,-3.0013844379787726,-1.6725935445698563,-2.694924430228671,11.660402973956845,-3.260001688992498
-1.871581127386332,-2.8847804082392043,-1.699542788872143,-2.7275244471185958,11.48520382257061,-3.021410210403746
-1.9004289314687242,-2.7699283700134982,-1.726818033343329,-2.7577385492226334,11.29153475047373,-2.766180771888988
-1.9281282151688592,-2.657013022508761,-1.7543954188355553,-2.785400356941523,11.083605379903405,-2.5018097360851392
-1.9546983453939468,-2.546176968709727,-1.7822494224049705,-2.8104184543023747,10.865088896401637,-2.2346644444497605
-1.9801601150810442,-2.4375260797457106,-1.8103536069479942,-2.832765098746872,10.63919191679683,-1.9701005282085668
-2.0045353758785014,-2.3311341605777423,-1.838681257935463,-2.852466104028958,10.408719254501005,-1.7125812256707742
-2.027846717484279,-2.2270469680327323,-1.8672059189757526,-2.869591916285666,10.176130953668272,-1.465791795953421
-2.0501171871646062,-2.1252856584960496,-1.8959018381386092,-2.8842498342452,9.943590468158268,-1.232744834603007
-2.0713700437495666,-2.025849753814467,-1.9247443364810612,-2.89657728259123,9.713003848229379,-1.0158742279840014
-2.091628541287711,-1.9287197153321731,-1.9537101093069735,-2.90673602487107,9.486050399288743,-0.8171168037925355
-2.110915738441033,-1.8338592113392858,-1.9827774695556841,-2.9149071929089954,9.264205608303527,-0.6379816047411067
-2.129254330554426,-1.7412171552562505,-2.0119265414847742,-2.9212870089564063,9.048757287091409,-0.4796072647042255
-2.1466665021069886,-1.6507295823853365,-2.0411394115743384,-2.9260830816034487,8.840815927139731,-0.3428083052846051
-2.163173797930842,-1.5623214231139393,-2.070400242390373,-2.9295111646562946,8.641320247403081,-0.2281113728429045
-2.178797012161981,-1.4759082206399086,-2.099695354036936,-2.9317922783847234,8.451038878309891,-0.13578255630124506
-2.1935560943683803,-1.3913978318568097,-2.1290132768207832,-2.933150103947736,8.270569083479524,-0.06584700192845105
-2.2074700726869483,-1.3086921410220145,-2.1583447778602607,-2.9338085739670205,8.100333388030636,-0.01810209724019656
-2.2205569940971683,-1.227688807141708,-2.187682863599931,-2.9339895949394226,7.940574965002617,0.007874453230038794
-2.2328338821685856,-1.1482830574916818,-2.217022759549325,-2.933910850407122,7.791352630677734,0.012720284934462603
-2.2443167127435024,-1.0703695311849044,-2.246361868053396,-2.9337836475577777,7.652536313071726,-0.0027136681836661706
-2.2550204080553513,-0.9938441680541872,-2.2756997045289737,-2.9338107842396144,7.523803879868687,-0.037364400333644236
-2.2649588497358932,-0.9186061292555003,-2.3050378123713697,-2.934184428242951,7.404640233809357,-0.08995877835944839
-2.2741449110284484,-0.8445597269174068,-2.334379656653799,-2.9350840160265457,7.294339593099973,-0.15901775976281446
-2.2825905082976226,-0.771616330986407,-2.3637304968140644,-2.936674193624174,7.192011856939035,-0.24286442159573862
-2.2903066716074867,-0.6996962124170166,-2.393097238750306,-2.9391028378401316,7.096593894519092,-0.3396372555292728
-2.297303633731657,-0.6287302734718258,-2.4224882671287076,-2.9424992103954244,7.006866471501419,-0.4473100143430197
-2.303590936466375,-0.5586616087568116,-2.451913259232662,-2.9469723105388548,6.9214773237924785,-0.563719113568609
-2.309177552553943,-0.4894468355188868,-2.4813829823380504,-2.952609501674541,6.838970591779018,-0.6865991812656492
-2.314072020909132,-0.42105712960109665,-2.5109090773547957,-2.959475493487197,6.757822435051781,-0.8136268026375048
-2.318282592205143,-0.35347890525057885,-2.5405038322896676,-2.9676117615135724,6.676482167446201,-0.9424718360993363
-2.321817381257649,-0.28671408357611683,-2.5701799499048033,-2.977036479874566,6.593417711594681,-1.0708549187518976
-2.32468452209341,-0.22077990646017004,-2.5999503147035488,-2.987745029062085,6.507163616943435,-1.1966089937072792
-2.3268923211580117,-0.1557082702907357,-2.6298277649941695,-2.9997111189991577,6.416369378783974,-1.3177419656732794
-2.328449403860919,-0.09154457650289595,-2.659824876184161,-3.0128885386558903,6.319845413220132,-1.4324970273887914
-2.329364849625948,-0.02834612237069463,-2.6899537615707203,-3.0272135089297785,6.216603859651748,-1.5394069023365862
-2.3296483108496546,0.03381991622582285,-2.720225896660018,-3.0426075779531443,6.1058914599204925,-1.6373383049250445
-2.329310111687396,0.09487883082502778,-2.7506519724395493,-3.0589809610023946,5.987212134122127,-1.725523375063111
-2.328361323379146,0.15475095216624907,-2.781241782049573,-3.076236194753026,5.860337528106254,-1.8035756904295763
-2.326813813857483,0.21335432744731161,-2.8120041439971035,-3.094271951657322,5.7253046909245455,-1.8714896234920555
-2.32468027058301,0.2706073743565571,-2.8429468635136765,-3.1129868478922424,5.582401053757354,-1.9296231600714289
-2.3219741968394447,0.3264313848941306,-2.874076731992599,-3.132283079492957,5.432137899377804,-1.9786656622028929
-2.3187098829905035,0.38075276388790863,-2.9053995627875286,-3.152069736114986,5.275214401800349,-2.0195932621169863
-2.3149023553516246,0.4335049079059121,-2.9369202601486784,-3.1722656687361557,5.112474967220025,-2.053615463254144
-2.3105673062725653,0.4846296575781124,-2.96864291683604,-3.192801823368697,4.944862947100528,-2.082116998418084
-2.3057210096967844,0.5340782870491176,-3.000570935069727,-3.2136229933528777,4.773373800962618,-2.1065990237364023
-2.3003802268262934,0.5818120250587439,-3.0327071650032558,-3.234688983590242,4.599010490092769,-2.1286233488843336
-2.294562106575706,0.6278021299596716,-3.065054054839158,-3.255975217079085,4.42274335500139,-2.1497627134083994
-2.2882840852761093,0.6720295635096855,-3.097613807009949,-3.277472844213169,4.245476063479655,-2.1715592422521293
-2.2815637896410124,0.714484324144482,-3.130388535452081,-3.2991884366356903,4.068018511096655,-2.195492282643579
-2.2744189463995674,0.7551645092554486,-3.163380419818438,-3.321143359462126,3.891066897881339,-2.2229559542153705
-2.266867301307013,0.794075178234262,-3.196591853413059,-3.34337291900428,3.7151906561194923,-2.2552460175903257
-2.2589265495246704,0.8312270847954569,-3.2300255826031017,-3.365925379180183,3.540825499308808,-2.293555129171096
-2.250614278676716,0.866635339788545,-3.2636848363949036,-3.388860930471894,3.3682716100337062,-2.338975211868601
-2.2419479252788306,0.900318055888882,-3.2975734456996224,-3.41225068259058,3.1976958732916736,-2.3925055158830375
-2.232944744719942,0.9322950146217988,-3.331695952525528,-3.4361757377494104,3.029137067293414,-2.45506493579263
-2.2236217945737238,0.962586385294733,-3.366057709903022,-3.4607263871073366,2.862513016143008,-2.527507247600509
-2.2139959307207766,0.991211515456163,-3.4006649737740955,-3.4860014595833415,2.6976288586485797,-2.6106380892886265
-2.204083815566215,1.0181878040426489,-3.435524988369929,-3.5121078404762276,2.5341857697733956,-2.7052326928132127
-2.1939019375257884,1.0435296617403829,-3.4706460667746915,-3.5391601674043596,2.3717896674085823,-2.8120535534370936
-2.1834666409083847,1.0672475584144687,-3.506037668448735,-3.5672807029387306,2.2099596359733984,-2.9318673702809837
-2.17279416532424,1.0893471547742026,-3.5417104754781223,-3.5965993766415405,2.048135995585508,-3.0654606926043306
-2.161900693776498,1.1098285147300577,-3.5776764692445377,-3.627253983567584,1.8856881433026078,-3.213653746329229
-2.1508024086291977,1.1286853961630838,-3.6139490090802138,-3.6593905210308764,1.721922498976244,-3.377311883104731
-2.139515554667567,1.1459046211528463,-3.6505429142905226,-3.6931636398619236,1.5560911155193895,-3.557353977292653
-2.1280565084560386,1.1614655323080403,-3.6874745506891418,-3.7287371796348503,1.387401779919777,-3.754756878716232
-2.116441853132958,1.1753395501072381,-3.72476192248549,-3.7662847484220126,1.2150307606758797,-3.970554688956406
-2.1046884576318856,1.187489857713997,-3.7624247699697104,-3.8059902953115765,1.038139779344312,-4.205831136037876
-2.0928135590547456,1.19787125550744,-3.8004846729228263,-3.8480486066719553,0.8558993358398028,-4.461702635237276
