th1 (rad),w1 (rad/s),th2 (rad),w2 (rad/s)
1.848343619079363,-1.198801616104283,3.3820571024383432,-0.4978669456293168
1.8363556029183201,-1.2920431882385157,3.3770784329820502,-0.4854323821882903
1.8234351710359349,-1.3855653655544147,3.3722241091601672,-0.4764415669803711
1.8095795173803908,-1.4793777838116744,3.3674596934903636,-0.47116838637180425
1.7947857395422742,-1.5734955348333195,3.3627480096266456,-0.46988929843442395
1.779050784193941,-1.6679391863428839,3.3580491166423014,-0.47288343803330674
1.762371392330512,-1.7627346330207003,3.3533202822619685,-0.48043274474053743
1.744744046000305,-1.857912763480389,3.3485159548145633,-0.49282209494399404
1.726164918365501,-1.9535089271568427,3.343587733865123,-0.5103394138920744
1.7066298290939326,-2.0495621841715375,3.3384843397262025,-0.533275737499389
1.6861342072522172,-2.1461143201042905,3.3331515823512086,-0.5619251876111091
1.6646730640511742,-2.2432086062865744,3.3275323304750977,-0.5965848181836227
1.6422409779883085,-2.3408882848113377,3.3215664822932616,-0.637554283614348
1.618832095140195,-2.439194756044311,3.315190939457118,-0.6851352744103179
1.594440147579752,-2.538165445190805,3.308339586713015,-0.7396306597394551
1.569058493127844,-2.637831323647728,3.3009432801156207,-0.801343271438678
1.5426801798913667,-2.73821406074404,3.292929847401234,-0.870574260113024
1.5152980392839264,-2.839322782400363,3.2842241048001037,-0.9476209514909643
1.4869048114599228,-2.941150415638781,3.274747895285194,-1.0327741307392129
1.457493307303535,-3.0436696022201812,3.264420153977802,-1.1263146846176326
1.4270566112813332,-3.146828171490167,3.253157007131626,-1.228509536889175
1.3955883295664315,-3.2505441722996906,3.240871911762734,-1.339606822069936
1.3630828878434347,-3.3547004771326794,3.2274758435420345,-1.4598302572065085
1.3295358830721078,-3.459138988746621,3.2128775409699695,-1.5893726916502506
1.2949444931846417,-3.563654501006507,3.1969838140534668,-1.7283888413744102
1.2593079481745766,-3.667988291259863,3.1796999256397225,-1.8769872476228064
1.2226280652619779,-3.7718215513820774,3.1609300531634945,-2.035221539602572
1.1849098497481572,-3.874768798005599,3.1405778377674687,-2.203081127081639
1.1461621617681013,-3.9763714385488123,3.1185470264966524,-2.380481500107642
1.1063984473826132,-4.0760917072151885,3.094742211495576,-2.5672543680143307
1.0656375303104613,-4.1733072225353265,3.0690696678154326,-2.7631379262527282
1.023904458085108,-4.267306453421222,3.0414382885529054,-2.967767594788353
0.9812313935508957,-4.35728541213226,3.011760612605022,-3.180667623083804
0.9376585394295731,-4.4423459181044205,2.979953936374184,-3.401244001441204
0.8932350802485289,-4.521495794536903,2.945941496359772,-3.6287791546391825
0.8480201223031599,-4.5936513684485085,2.90965370481338,-3.862428920110206
0.8020836086186749,-4.657642643172585,2.871029415612278,-4.10122232902618
0.755507182186949,-4.712221498221208,2.8300171923220163,-4.344064714925087
0.708384967204737,-4.75607324245841,2.7865765451727653,-4.589744671237711
0.6608242347801528,-4.787831798181038,2.7406790984603884,-4.836945365424592
0.6129459167983424,-4.806098719070786,2.6923096448061425,-5.084260689961886
0.5648849296076346,-4.809466134099785,2.6414670379065237,-5.330216681640269
0.5167902682666368,-4.796543549722113,2.588164871090121,-5.573298558223744
0.4688248327694156,-4.765988220402976,2.5324318855078833,-5.811983588738538
0.42116495056538583,-4.716538501329853,2.4743120496204978,-6.044779811928797
0.3739995655520873,-4.647049222891351,2.41386425150121,-6.270270331197242
0.32752907332317377,-4.556527683497137,2.3511615481892374,-6.487162538429362
0.2819637964882024,-4.444168374202431,2.2862899228049436,-6.694341167044803
0.2375221127461781,-4.309384076998175,2.2193465111344954,-6.8909235863406515
0.19442827197619636,-4.151830591751154,2.1504372752710887,-7.076315294621685
0.15290996605868482,-3.9714221309663884,2.079674122324872,-7.250263244365545
0.11319574474902093,-3.768334459861654,2.0071714898812165,-7.412904549604389
0.07551240015040439,-3.5429932090512612,1.9330424443851726,-7.564808387771559
0.040082468059891775,-3.296045456669481,1.857394360507457,-7.707009586426309
0.007122013493196966,-3.0283136082993183,1.7803242646431938,-7.841033493440432
-0.023161122589796218,-2.7407316707281804,1.7019139297087895,-7.9689132103286475
-0.05056843929707802,-2.4342650434253943,1.622224797605503,-8.093201996276203
-0.07491108973133197,-2.1098157534765827,1.541292777642741,-8.216985446627445
-0.0960092472660978,-1.7681154974844062,1.4591229231764666,-8.343899703612248
-0.11369040224094187,-1.409608914198144,1.3756839261403442,-8.478163224279148
-0.1277864913829233,-1.0343294120585824,1.2909022938975527,-8.624630161942289
-0.13812978550350913,-0.6417702501251499,1.20465599227813,-8.788872535283303
-0.14454748800476064,-0.23075585773235752,1.1167672669252968,-8.977294503177378
-0.1468550465820842,0.20067429294822747,1.0269943218935231,-9.197271515089854
-0.14484830365260193,0.6553377261645968,0.9350216067426246,-9.457281110055291
-0.13829492639095595,1.136859142759149,0.8404487956420716,-9.766930482510768
-0.12692633496336445,1.6493146636812928,0.7427794908169639,-10.136643274139109
-0.11043318832655152,2.1961508592150345,0.6414130580755728,-10.57644823176757
-0.08847167973440118,2.7774714614032145,0.5356485757578971,-11.092638984520653
-0.060696965120369026,3.3839206443624565,0.4247221859126906,-11.679859350481692
-0.02685775867674446,3.984534910961472,0.3079235924078737,-12.304900561805464
0.01298759043287026,4.508079745942287,0.18487458678981905,-12.881245530975871
0.058068387892293134,4.831863022107107,0.05606213148006034,-13.253032602664387
0.1063870181133642,4.821987011849365,-0.07646819454658355,-13.248179425297682
0.15460688823185786,4.445533389434904,-0.20894998879956037,-12.828235110158973
0.1990622221262069,3.8240644851333765,-0.3372323399011501,-12.156781722454102
0.23730286697754066,3.121498733701381,-0.4588001571256911,-11.44570551253975
0.2685178543145545,2.4359973672316833,-0.5732572122510886,-10.813806567133899
0.29287782798687134,1.8004687294282515,-0.6813952779224276,-10.293045151392471
0.31088251528115385,1.2169898331083002,-0.7843257294363524,-9.876718211287255
0.32305241361223686,0.6780389917545022,-0.883092911549225,-9.547564334266577
0.3298328035297819,0.17484966211513997,-0.9785685548918908,-9.28809505628339
0.3315813001509333,-0.300030653730031,-1.0714495054547246,-9.083308037407932
0.32858099361363297,-0.752235323485839,-1.162282585828804,-8.92087774815624
0.3210586403787746,-1.1856973247468487,-1.2514913633103664,-8.79069051072662
0.3092016671313061,-1.6029106422379291,-1.3393982684176327,-8.684316933109994
0.2931725607089268,-2.005190541557824,-1.4262414377487327,-8.594580716048517
0.27312065529334856,-2.3929009316065426,-1.5121872449092177,-8.515246912775245
0.24919164597728313,-2.7656508202166252,-1.5973397140369703,-8.440815149339763
0.22153513777511688,-3.122469269453485,-1.681747865530368,-8.366396092330582
0.19031044508058204,-3.461967104689049,-1.7654118264536738,-8.287650386622872
0.15569077403369155,-3.782490068185681,-1.8482883303199025,-8.200771619822184
0.11786587335183474,-4.082264328508559,-1.9302960465181243,-8.102496976286481
0.07704323006674915,-4.359532148916791,-2.011321016280989,-7.99013112148833
0.033447908577581245,-4.612673511242768,-2.0912223274958723,-7.861570896904092
-0.012678826534846435,-4.840308781166609,-2.1698380364649132,-7.715320922060211
-0.06108191434651253,-5.0413780658572085,-2.2469912456855154,-7.550493261142815
-0.1114956950050846,-5.215194515084188,-2.3224961782969435,-7.366787710794351
-0.16364764015592648,-5.361471029825011,-2.396164055404887,-7.1644526003002955
-0.21726235045417658,-5.480322158282478,-2.46780858140789,-6.944228803114342
-0.2720655720370014,-5.572244904154512,-2.5372508694390334,-6.707281567513134
-0.3277880210785465,-5.638083417428707,-2.604323685114165,-6.45512561057899
-0.38416885525283356,-5.678982959595227,-2.6688749412199546,-6.189548743197985
-0.4409586848487858,-5.696338207131181,-2.7307704286519345,-5.912538355755548
-0.4979220669200976,-5.691740093804058,-2.78989581220949,-5.626213747485034
-0.5548394678581382,-5.66692426616709,-2.8461579496843403,-5.332765879738697
-0.6115087105198092,-5.623723091554284,-2.899485608481727,-5.034404948571877
-0.667745941435352,-5.564022198688913,-2.9498296579674457,-4.733315359980972
-0.7233861634222412,-5.489721843881948,-2.9971628115672555,-4.43161728728778
-0.7782833818610606,-5.402702995148614,-3.041478984440133,-4.131333936621872
-0.8323104118125467,-5.3047978675976,-3.082792323806352,-3.8343638307806462
-0.8853583904885227,-5.19776464974883,-3.1211359621141583,-3.542457715443014
-0.937336036986011,-5.083266249165169,-3.1565605392685883,-3.2571999805604097
-0.9881686994776626,-4.962852986078659,-3.1891325390741923,-2.9799946926769567
-1.0377972293384492,-4.837949227085352,-3.218932486000962,-2.712056410327673
-1.0861767216093028,-4.7098439543764945,-3.2460530501042384,-2.4544059020601585
-1.1332751611530678,-4.579685208840465,-3.27059710912484,-2.20787073169265
-1.1790720132414725,-4.448478243331853,-3.292675816441766,-1.9730904616026512
-1.223556795674791,-4.317087099401465,-3.3124067210577928,-1.7505259997568532
-1.2667276666688057,-4.1862392017328025,-3.3299119810553615,-1.5404724213216505
-1.3085900586861337,-4.056532469822571,-3.345316705268578,-1.3430744598050701
-1.3491553833843593,-3.9284443888579945,-3.358747449866629,-1.158343799410559
-1.3884398272729392,-3.8023424657738016,-3.3703308878607348,-0.9861773092385033
-1.4264632519306772,-3.678495519455792,-3.38019266095312,-0.8263754301831336
-1.463248207125235,-3.5570853083674865,-3.388456415254951,-0.6786600397270359
-1.49881906020891,-3.4382180743819375,-3.3952430156522215,-0.5426912593278481
-1.5332012409527294,-3.321935667848138,-3.4006699282455,-0.4180828161416531
-1.5664205976312107,-3.2082260066990624,-3.404850756406917,-0.30441571134669343
-1.5985028576982012,-3.0970327046246697,-3.4078949135203835,-0.2012500715876344
-1.629473184744448,-2.9882637752888823,-3.40990741423626,-0.10813516260769526
-1.6593558224973368,-2.88179937879375,-3.410988765862337,-0.024617623146700476
-1.6881738162852744,-2.7774986224297176,-3.4112349420938037,0.04975196648459197
-1.7159488025095715,-2.6752054608471605,-3.4107374224289577,0.11541403050892798
-1.7427008571180431,-2.574753762605428,-3.4095832821238683,0.17279628821763257
-1.7684483947440974,-2.4759716224706194,-3.407855319241692,0.22231121200702875
-1.7932081109688036,-2.37868500381042,-3.4056322071216214,0.26435447871213635
-1.8169949610069078,-2.2827207948380597,-3.4029886623345003,0.2993042490993537
-1.8398221689552885,-2.1879093579334685,-3.399995619843507,0.3275211232851335
-1.8617012625346232,-2.094086644195064,-3.3967204086106557,0.34934863467311356
-1.8826421289765738,-2.0010959368540133,-3.3932269222639246,0.36511416036551264
-1.9026530883451138,-1.9087892780662437,-3.3895757806602695,0.3751301409839584
-1.9217409811257762,-1.8170286245208043,-3.38582447925043,0.3796955168797684
-1.9399112673709842,-1.7256867687223079,-3.382027524081632,0.37909730055651014
-1.9571681350582073,-1.6346480550325144,-3.3782365510760672,0.37361221670317835
-1.9735146156085324,-1.5438089127909842,-3.3745004289090357,0.36350835161195294
-1.9889527047364421,-1.4530782231869899,-3.3708653453929163,0.34904676307272486
-2.003483486968312,-1.3623775320628226,-3.367374877762189,0.33048301026923615
-2.01710726228894,-1.2716411174719118,-3.3640700476594967,0.30806857091546164
-2.0298236734636594,-1.1808159185245508,-3.360989361950342,0.2820521200032436
-2.041631832648905,-1.0898613307197027,-3.35816884075031,0.25268065117712096
-2.0525304459561022,-0.9987488724411646,-3.3556420342385387,0.2202004279548486
-2.062517934680514,-0.9074617274250465,-3.3534400299589904,0.18485775777119637
-2.0715925519547644,-0.8159941686053874,-3.351591452381278,0.14689958710049833
-2.0797524936408185,-0.7243508696377877,-3.3501224565102734,0.10657392065019261
-2.0869960023371963,-0.6325461114213803,-3.3490567173037715,0.06413007174858396
-2.09332146345141,-0.5406028919457065,-3.3484154165862856,0.019818754523498752
-2.098727492370867,-0.44855194867348797,-3.3482172290410506,-0.026107968739144678
-2.103213011857602,-0.35643070336557825,-3.348478308728442,-0.0733968695412025
-2.1067773188912575,-0.26428213973517356,-3.349212277423854,-0.12179384738764404
-2.1094201402886092,-0.172153624597791,-3.3504302158977306,-0.1710443182260457
-2.111141676534587,-0.0800956833048972,-3.352140659079991,-0.22089367843545354
-2.111942633367636,0.011839259726343573,-3.3543495958643454,-0.2710878252992709
-2.1118242407703725,0.1035981645821123,-3.357060474117338,-0.3213737146084847
-2.1107882591245515,0.19512867270011644,-3.3602742112634227,-0.3714999357434788
-2.10883697239755,0.2863804061101728,-3.3639892106208573,-0.42121728420445365
-2.1059731683364484,0.3773062580618331,-3.368201383462902,-0.47027931108426735
-2.10220010575583,0.4678636638989031,-3.3729041765737446,-0.5184428284418142
-2.0975214691168413,0.5580158409562086,-3.3780886048581626,-0.5654683490288881
-2.0919413107072793,0.6477329863083203,-3.3837432883484517,-0.611120438477887
-2.085463980844196,0.736993421490366,-3.389854492733231,-0.6551679580211183
-2.078094046629292,0.8257846739274017,-3.396406172313442,-0.6973841762327379
-2.069836199890018,0.9141044858174943,-3.4033800140757693,-0.7375467292859552
-2.060695155031843,1.001961742643727,-3.410755481368629,-0.7754374108836716
-2.0506755376054056,1.0893773153238018,-3.4185098554774656,-0.8108417753788996
-2.0397817644521674,1.17638481217357,-3.4266182732312545,-0.8435485406231169
-2.0280179163304317,1.2630312392441385,-3.4350537586374856,-0.8733487806846093
-2.0153876039379903,1.349377570030353,-3.4437872464443315,-0.9000349026443293
-2.001893828237687,1.4354992278497085,-3.4527875954707747,-0.9233994060644526
-1.9875388359591897,1.5214864861456643,-3.4620215895314193,-0.9432334283005623
-1.972323971097733,1.6074447933642553,-3.471453923814425,-0.9593250834887057
-1.9562495231640904,1.693495029681251,-3.481047174649312,-0.9714576077341205
-1.9393145728672778,1.7797737025274145,-3.4907617507266533,-0.9794073277838388
-1.9215168358420036,1.8664330863990641,-3.5005558240044916,-0.9829414753935617
-1.902852504978013,1.9536413096958705,-3.510385238758427,-0.9818158749096471
-1.8833160918810543,2.041582387158065,-3.5202033975075238,-0.9757725375878663
-1.8629002680094737,2.130456190750366,-3.5299611228834022,-0.9645372032644661
-1.84159570610197,2.2204783444332024,-3.539606494916047,-0.9478168786692823
-1.8193909226576381,2.311880019048226,-3.5490846637027396,-0.9252974324802047
-1.7962721224671558,2.4049075924055887,-3.5583376380275418,-0.8966413207605395
-1.7722230465431,2.499822126496344,-3.5673040512351473,-0.8614855332979644
-1.7472248252781364,2.596898598514774,-3.575918906568127,-0.8194398721277669
-1.7212558392929886,2.696424805109321,-3.5841133052894047,-0.7700856985952468
-1.6942915912418954,2.7986998402027394,-3.5918141622753574,-0.712975314868016
-1.666304592839868,2.9040320263178403,-3.5989439154240377,-0.6476321796168627
-1.6372642725766897,3.012736158505146,-3.605420237220206,-0.5735521947875688
-1.6071369109916382,3.125129900155983,-3.611155759168082,-0.4902063392232677
-1.5758856119900784,3.2415291534296906,-3.6160578225603146,-0.3970449623559701
-1.5434703204557814,3.3622422169293094,-3.620028272183874,-0.2935040826189935
-1.5098478982864882,3.4875625439772913,-3.622963313010064,-0.1790140539712314
-1.4749722728467154,3.6177599319577745,-3.6247534535497765,-0.05301096098834979
-1.4387946735271377,3.753070013428612,-3.62528356315966,0.08504893298753577
-1.4012639733928516,3.893681990515088,-3.6244330738297843,0.23567144247930405
-1.3623271534877006,4.039724662778339,-3.6220763594049914,0.3993033220615908
-1.3219299068599173,4.191250950965989,-3.6180833261843754,0.5763078514631823
-1.2800173973502573,4.34822131664116,-3.612320247669744,0.7669375597465399
-1.2365351841838457,4.510486715876154,-3.6046508720722783,0.971304885297453
-1.1914303170250842,4.677771989555202,-3.5949378232193037,1.1893520158861324
-1.144652597129532,4.84966085670497,-3.583044303060442,1.4208216331673953
-1.0961559885624823,5.025583900879304,-3.5688360867287683,1.6652307414222092
-1.0459001495536893,5.204811072203353,-3.552183779314546,1.9218501118952735
-0.9938520388316557,5.386450213967896,-3.5329652781955936,2.189692028095638
-0.9399875366919768,5.569452914126428,-3.5110683579146373,2.467508881348071
-0.8842930075507125,5.7526285516749045,-3.4863932691011565,2.7538046710391026
-0.8267667220339634,5.934666765203211,-3.4588552223907656,3.0468605914300637
-0.7674200543819313,6.114167771986459,-3.428386616476465,3.344774688711146
-0.7062783766620667,6.289679113006712,-3.3949388695893536,3.645514178996315
-0.6433815855319996,6.459736625987051,-3.3584837277993906,3.9469776264703214
-0.5787842192721291,6.622906892593838,-3.3190139515346875,4.247063016809436
-0.5125551503461907,6.777828175143842,-3.276543321366593,4.543737028862819
-0.4447768685947523,6.923247000451051,-3.2311059510779647,4.8351006390709586
-0.3755443985902418,7.0580480373913455,-3.182754944687255,5.119446612148413
-0.30496391821632834,7.1812756555349555,-3.131560478565771,5.395305348667685
-0.23315116166097877,7.292146406915956,-3.077607425079094,5.661476797868338
-0.1602296975918192,7.390052496288233,-3.0209926571004106,5.917047484086474
-0.08632917262893688,7.47455697799875,-2.961822182259546,6.161392931399053
-0.011583602848949381,7.5453818692493435,-2.9002082529455553,6.39416675082631
0.06387021584354406,7.602390583724048,-2.836266585437292,6.615278299689704
0.13989412168078455,7.645566095947834,-2.7701138024403953,6.82486112876806
0.2163497826402629,7.6749861039524445,-2.7018651911527147,7.0232344510316285
0.29309964367978736,7.6907962350384125,-2.6316328466423986,7.2108596789613735
0.37000760603017147,7.693182101535087,-2.559524249852785,7.388293777451788
0.44693942704552236,7.682340812337093,-2.485641312078267,7.5561408497998395
0.5237628351688933,7.658452417685885,-2.4100799035802685,7.715003082493996
0.6003473593457522,7.621651730855326,-2.3329298727553285,7.865431969234762
0.6765638766543055,7.572001041811492,-2.254275553062981,8.007880648646452
0.7522838870724204,7.50946441753115,-2.1741967465765164,8.142658244098165
0.827378531247732,7.433884568155881,-2.0927701641355347,8.269887299124514
0.9017173769292908,7.344963636466421,-2.0100712911442895,8.389465759695414
0.9751670132939549,7.242249716653875,-1.9261766335473354,8.50103545264133
1.0475895104604938,7.125131382724595,-1.841166279020922,8.603959612537066
1.1188408242877397,6.992842931802367,-1.7551266828955514,8.69731264590313
1.1887692536057632,6.844483307060652,-1.6681535564365202,8.779885869721955
1.2572140866763697,6.679051598202168,-1.5803546977393006,8.850213237724706
1.3240046026583914,6.4955014280421235,-1.4918525653620536,8.906620830400062
1.3889596169388125,6.292815222417513,-1.402786357058053,8.947302859258572
1.4518877691629877,6.070097187504538,-1.3133133284654672,8.970424881149931
1.512588741038033,5.826680795602155,-1.2236090796539678,8.97425173040536
1.5708555489940546,5.562242974113963,-1.1338665623499142,8.957293519131216
1.6264779787351942,5.276913595294581,-1.044293627158602,8.918458472995958
1.67924711468814,4.9713661731671,-0.9551090424286425,8.857197308582034
1.728960776419811,4.646874920940246,-0.8665370693428222,8.773621530502409
1.7754295256292134,4.305325351587997,-0.7788008540377981,8.668578578332017
1.8184827791450935,3.9491706782815235,-0.6921150682544779,8.543670812907362
1.8579744859279088,3.5813337755461196,-0.6066783601254042,8.401212608933918
1.89378782368337,3.2050629004052036,-0.522666234036065,8.244128986778849
1.9258384526874222,2.8237567448826018,-0.44022494416827657,8.075808199027946
1.9540760201362481,2.4407788480524504,-0.3594668621779971,7.899927329003883
1.9784838086167726,2.0592818962763135,-0.2804675888879583,7.7202727608689035
