th1 (rad),w1 (rad/s),th2 (rad),w2 (rad/s),a1 (rad/s^2),a2 (rad/s^2)
1.5003438886888258,-3.099049030912785,0.5569695680605905,0.68138725666361,-12.95812142779532,10.201694115482178
1.469353398379698,-3.2286302451907383,0.5637834406272266,0.7834041978184317,-13.47226462813257,11.279988089536838
1.4370670959277907,-3.363352891472064,0.5716174826054109,0.8962040787138001,-14.042558182462878,12.414944277813763
1.40343356701307,-3.503778473296693,0.5805795233925489,1.0203535214919377,-14.67029806087327,13.602102610255718
1.368395782280103,-3.6504814539054258,0.5907830586074683,1.1563745475944949,-15.353304757142817,14.831174203919453
1.3318909677410486,-3.804014501476854,0.6023468040834132,1.3046862896336895,-16.083514697402048,16.082487009523366
1.2938508227262802,-3.9648496484508744,0.6153936669797502,1.4655111597289232,-16.84334821390543,17.321684817184472
1.2542023262417714,-4.133283130589929,0.6300487785770394,1.638728007900768,-17.600429376031883,18.492094116050044
1.212869494935872,-4.309287424350248,0.6464360586560471,1.8236489490612684,-18.300323623920477,19.504320008126058
1.1697766206923697,-4.492290660589452,0.6646725481466598,2.018692149142529,-18.85744332864461,20.22334846912633
1.1248537140864752,-4.680865093875898,0.6848594696380851,2.2209256338337924,-19.145606475490833,20.455369027214303
1.078045063147716,-4.872321158630807,0.707068725976423,2.4254793241059356,-18.992549620906114,19.94058057350945
1.029321851561408,-5.062246654839868,0.7313235192174824,2.6248851298410303,-18.187282294445865,18.364798130865616
0.9786993850130093,-5.244119477784326,0.7575723705158927,2.8085331111496865,-16.513837309368174,15.409303831829424
0.9262581902351661,-5.409257850878008,0.7856577016273896,2.962626149467981,-13.823267625245718,10.855854282122003
0.872165611726386,-5.547490527130465,0.8152839631220694,3.0711846922892008,-10.136307434996327,4.7358635683251435
0.8166907064550813,-5.648853601480429,0.8459958100449614,3.118543327972452,-5.728233295840508,-2.545795519174058
0.760202170440277,-5.706135934438834,0.8771812433246859,3.0930853727807115,-1.1156312277860556,-10.227760078286734
0.7031408110958887,-5.717292246716694,0.9081120970524931,2.990807771997844,3.096607572559295,-17.410721920539917
0.6459678886287217,-5.686326170991101,0.9380201747724715,2.8167005527924447,6.435549240961461,-23.375281946271453
0.5891046269188107,-5.621970678581486,0.9661871803003959,2.58294773332973,8.702962210527085,-27.792050777880114
0.5328849201329958,-5.534941056476216,0.9920166576336932,2.305027225550929,9.965249403619376,-30.71387085343422
0.47753550956823365,-5.435288562440022,1.0150669298892026,1.9978885170165868,10.44237387775018,-32.421190741025235
0.42318262394383344,-5.33086482366252,1.0350458150593684,1.6736766096063345,10.391431706288529,-33.256277364099034
0.36987397570720826,-5.226950506599635,1.0517825811554318,1.341113835965344,10.036629349983947,-33.52135288348655
0.3176044706412119,-5.126584213099795,1.0651937195150851,1.0059003071304786,9.545606167903387,-33.44225776525559
0.26633862851021395,-5.031128151420761,1.07525272258639,0.6714777294779227,9.032235772899476,-33.17034961409325
0.21602734699600634,-4.940805793691767,1.0819674998811692,0.33977423333699025,8.568839123579902,-32.798619236810204
0.16661928905908868,-4.855117402455968,1.0853652422145392,0.011788040968888192,8.198856711998458,-32.37918257185317
0.11806811503452899,-4.773128835335983,1.085483122624228,-0.3120037847496435,7.946837238239108,-31.93747388404079
0.07033682668116917,-4.693660462953592,1.0823630847767316,-0.6313785235900514,7.825381866549226,-31.482443625385073
0.023400222051633245,-4.6154066442881,1.076049299540831,-0.9462029598439021,7.839629777217384,-31.01345967972419
-0.02275384439124776,-4.537010346515927,1.066587269942392,-1.256337556641144,7.9900091707879,-30.524848696671206
-0.06812394785640702,-4.457110254808048,1.0540238943759805,-1.5615860436078561,8.273851456376773,-30.008860696983483
-0.11269505040448749,-4.37437174024428,1.038408033939902,-1.861674650577691,8.686298119417488,-29.457615255753435
-0.15643876780693028,-4.287508759050105,1.019791287434125,-2.1562508031352254,9.22079014281328,-28.86439622349857
-0.19931385539743135,-4.195300857621972,0.9982287794027728,-2.4448947653702113,9.86932999907961,-28.22452396029478
-0.24126686397365107,-4.0966075576311765,0.9737798317490707,-2.727140004973159,10.622639131423659,-27.53594225680243
-0.28223293954996287,-3.99038116631694,0.9465084316993391,-3.0024994275411836,11.470289631468082,-26.799599219946465
-0.3221367512131323,-3.875678270002259,0.9164834374239272,-3.2704954197406484,12.400859359280044,-26.019666774629954
-0.3608935339131549,-3.7516696764094584,0.8837784832265208,-3.530692087486948,13.402139356510952,-25.203624297307737
-0.39841023067724946,-3.617648282844349,0.8484715623516512,-3.782728330460025,14.46140745612163,-24.36222288104695
-0.43458671350569295,-3.4730342082831327,0.8106442790470509,-4.026350559270495,15.565770348103408,-23.509344131032844
-0.46931705558852427,-3.3173765048020987,0.770380773454346,-4.261444000580823,16.702566844169322,-22.661768541062443
-0.5024908206365453,-3.1503508363604054,0.7277663334485377,-4.488061685991448,17.85981709406702,-21.838871331986525
-0.5339943290001493,-2.9717526654197353,0.6828857165886232,-4.706450399311313,19.026695698268906,-21.062266345170205
-0.5637118556543467,-2.7814857084370463,0.63582121259551,-4.9170730627630155,20.194000665413856,-20.355419415020798
-0.5915267127387172,-2.5795457017829078,0.5866504819678799,-5.120627256913224,21.354584278450986,-19.74324961945669
-0.6173221697565462,-2.3659998589983977,0.5354442093987477,-5.318059753107791,22.503704761980178,-19.25172739220134
-0.6409821683465302,-2.140962811378596,0.4822636118676698,-5.510577027029805,23.63924657371542,-18.90745900337171
-0.6623917964603162,-1.9045703456414418,0.42715784159737175,-5.699651617063521,24.76173758440977,-18.737211551068356
-0.6814374999167306,-1.6569529697973442,0.3701613254267365,-5.887023732574205,25.87405559337361,-18.767271648905762
-0.6980070296147041,-1.398212413863608,0.3112910881009945,-6.0746964490632624,26.980651735780693,-19.022428025007418
-0.7119891537533402,-1.128405896505801,0.2505441236103619,-6.264920729313337,28.086003791738296,-19.524195902379695
-0.7232732127183982,-0.8475458585884181,0.18789491631722852,-6.4601626883371335,29.191816627922364,-20.28761572212412
-0.7317486713042823,-0.5556276923091945,0.12329328943385719,-6.663038845558375,30.29216614341316,-21.315497579725744
-0.7373049482273742,-0.25270603087506294,0.05666290097827344,-6.876193821355632,31.365290932373725,-22.588274850716683
-0.7398320085361249,0.0609468784486743,-0.012099037235282883,-7.102076569862799,32.36007297337591,-24.04666154471133
-0.7392225397516381,0.3845476081824334,-0.08311980293391087,-7.342543185309912,33.17462497575996,-25.563340211938268
-0.7353770636698138,0.7162938579400331,-0.15654523478701,-7.598176587429295,33.624676914407246,-26.900085162938144
-0.7282141250904135,1.0525406270841056,-0.23252700066130294,-7.867177439058676,33.40309594702255,-27.651413940427275
-0.7176887188195724,1.386571586554331,-0.3111987750518897,-8.143691578462949,32.04429731874694,-27.192550040433527
-0.7038230029540291,1.7070145597418005,-0.39263569083651917,-8.415617078867285,28.935928763738332,-24.688636775305884
-0.6867528573566111,1.9963738473791839,-0.47679186162519205,-8.662503446620343,23.461251307328673,-19.27916071608929
-0.6667891188828192,2.2309863604524707,-0.5634168960913954,-8.855295053781237,15.35490298363153,-10.552569782809785
-0.6444792552782945,2.384535390288786,-0.6519698466292079,-8.960820751609335,5.184973163485886,0.8039467261771863
-0.6206339013754066,2.4363851219236445,-0.7415780541453012,-8.952781284347562,-5.474271847738214,12.769889080564857
-0.5962700501561702,2.3816424034462624,-0.8311058669887769,-8.825082393541914,-14.646260467407135,22.80312610748181
-0.5724536261217076,2.235179798772191,-0.919356690924196,-8.597051132467096,-21.008767476436862,29.24893780186469
-0.5501018281339857,2.0250921240078226,-1.005327202248867,-8.304561754448448,-24.408448893330906,32.000310486184596
-0.5298509068939075,1.7810076350745134,-1.0883728197933515,-7.984558649586602,-25.504418398481025,31.991249232363938
-0.5120408305431623,1.525963451089703,-1.1682184062892176,-7.664646157262963,-25.14734277425236,30.362165093080023
-0.4967811960322653,1.2744900233471794,-1.2448648678618472,-7.361024506332162,-24.018311804357023,27.994254386219232
-0.4840362957987935,1.0343069053036091,-1.3184751129251688,-7.08108196246997,-22.554174394696453,25.42955606430314
-0.47369322674575737,0.8087651613566447,-1.3892859325498685,-6.826786401826938,-20.999482505925993,22.953079218737717
-0.4656055751321909,0.5987703362973847,-1.457553796568138,-6.597255609639561,-19.47687116259068,20.69236806011486
-0.4596178717692171,0.40400162467147793,-1.5235263526645335,-6.390331929038412,-18.03990717001465,18.6893787048451
-0.4555778555225023,0.22360255297133141,-1.5874296719549177,-6.203438141989961,-16.70582765401016,16.943616678884865
-0.453341829992789,0.056544276431229806,-1.6494640533748173,-6.034001975201113,-15.474048404481438,15.435692942119307
-0.4527763872284767,-0.09819620761358458,-1.7098040731268285,-5.879645045779919,-14.336091254429148,14.139410185461092
-0.4537583493046125,-0.24155712015787606,-1.7686005235846276,-5.738250943925308,-13.28070207037943,13.027610020313425
-0.45617392050619127,-0.37436414086167036,-1.8259830330238807,-5.607974843722174,-12.296375254001903,12.074774542964404
-0.459917561914808,-0.49732789340168937,-1.8820627814611024,-5.48722709829253,-11.372513575418077,11.258000305303558
-0.46489084084882487,-0.6110530291558701,-1.9369350524440276,-5.374647095239495,-10.499885382581228,10.557191633990127
-0.4710013711403836,-0.7160518829816824,-1.9906815233964226,-5.269075178899594,-9.670730101676398,9.954906400509666
-0.4781618899702004,-0.8127591839984464,-2.0433722751854186,-5.169526114894497,-8.878695772252204,9.436070257135913
-0.4862894818101849,-0.9015461417209685,-2.095067536334364,-5.075165412323138,-8.11870351090804,8.98766311107696
-0.49530494322739455,-0.9827331768300489,-2.1458191904575954,-4.985288781212368,-7.386786910045951,8.59842434402615
-0.505132274995695,-1.0566010459305084,-2.195672078269719,-4.899304537772107,-6.679929828191133,8.258594600423105
-0.5156982854550001,-1.1234003442124196,-2.24466512364744,-4.816718591767875,-5.99591333161761,7.959698046694489
-0.5269322888971243,-1.1833594775285958,-2.292832309565119,-4.737121611300931,-5.33317611800964,7.694362646896102
-0.5387658836724103,-1.2366912387086921,-2.3402035256781284,-4.66017798483197,-4.690689614315823,7.456173467241952
-0.5511327960594972,-1.2835981348518504,-2.386805305526448,-4.58561625015955,-4.067847504358071,7.239553375570572
-0.5639687774080157,-1.324276609895431,-2.4326614680280434,-4.513220716403844,-3.4643688608873617,7.039665743834616
-0.57721154350697,-1.3589202985043047,-2.477793675192082,-4.442824058965498,-2.8802138839208054,6.852334383175464
-0.5908007464920131,-1.3877224373435129,-2.5222219157817367,-4.374300715133743,-2.3155112495925336,6.673976686826811
-0.6046779708654482,-1.4108775498394381,-2.565964922933074,-4.307560948265475,-1.7704961348220638,6.501546701662635
-0.6187867463638426,-1.4285825111876589,-2.6090405324157286,-4.242545481248849,-1.2454580488225269,6.3324855372134
-0.6330725714757192,-1.4410370916758841,-2.651465987228217,-4.179220625876715,-0.7406976519973382,6.164677127661135
-0.647482942392478,-1.4484440681958575,-2.693258193486984,-4.117573854600104,-0.25649177221095953,5.996407880656329
-0.6619673830744365,-1.4510089859179671,-2.734433932032985,-4.057609775793541,0.2069341582156242,5.826329177942561
-0.6764774729336162,-1.448939644335811,-2.7750100297909204,-3.999346484014115,0.6494270172147096,5.653422041905057
-0.6909668693769743,-1.4424453741636638,-2.8150034946310614,-3.9428122635950644,1.0709210296167235,5.476963556437378
-0.7053913231186109,-1.4317361638674966,-2.854431617267012,-3.8880426280306906,1.4714476898160682,5.29649483809798
-0.7197086847572858,-1.417021686969336,-2.893312043547319,-3.835077679649711,1.8511413202269749,5.111790503007582
-0.7338789016269791,-1.3985102737670663,-2.931662820343816,-3.783959774619635,2.210240990399043,4.922829675016871
-0.7478640043646497,-1.376407863863076,-2.9695024180900127,-3.7347314778694662,2.5490894854063693,4.72976863985297
-0.7616280830032804,-1.3509169690090121,-3.0068497328687074,-3.6874337914709368,2.8681299650399086,4.532915276276703
-0.7751372526933705,-1.322235669358613,-3.0437240707834166,-3.6421046387081697,3.167900898861466,4.332705396106687
-0.7883596093869567,-1.2905566603699983,-3.080145117170498,-3.598777584747103,3.4490297982879636,4.129681106765694
-0.8012651759906567,-1.2560663623871187,-3.1161328930179693,-3.557480773679446,3.712226197714128,3.924471278230916
-0.8138258396145279,-1.2189441004099775,-3.1517077007547636,-3.5182360608971366,3.958274264294046,3.7177741552666395
-0.8260152806186277,-1.179361357767037,-3.186890061363735,-3.4810583193444704,4.188025342107391,3.5103421087871416
-0.8378088941962981,-1.1374811043459632,-3.22170064455718,-3.445954898256599,4.402390662290223,3.302968469222136
-0.8491837052397577,-1.093457197723061,-3.256160193539746,-3.4129252135643773,4.602334377021814,3.0964763308602268
-0.8601182772169883,-1.0474338539528427,-3.2902894456753895,-3.381960450255775,4.788867002173292,2.8917091593957163
-0.8705926157565167,-0.9995451839311098,-3.324109050177947,-3.353043358661818,4.963039280558361,2.6895229745497864
-0.8805880675958278,-0.9499147911255262,-3.357639483764565,-3.32614812891632,5.125936404264061,2.4907798142913733
-0.890087215507083,-0.8986554270828856,-3.3909009650537283,-3.3012403307734064,5.278672459383766,2.296342115061137
-0.8990737697779119,-0.8458687024890479,-3.4239133683614624,-3.278276909622795,5.422384878478407,2.1070675616447354
-0.9075324568028024,-0.7916448537042639,-3.4566961374576906,-3.2572062340063477,5.558228604392082,1.9238038694662474
-0.915448905339845,-0.7360625676603431,-3.489268199797754,-3.237968195311685,5.687369583526497,1.7473828605968063
-0.9228095310164485,-0.679188871825078,-3.5216478817508707,-3.220494366705717,5.810977118599257,1.5786130840799868
-0.9296014197346992,-0.6210791006390854,-3.553852825417928,-3.204708235864917,5.930214523764082,1.418270115677004
-0.9358122107410901,-0.5617769554014447,-3.585899907776577,-3.190525534708147,6.046227445544022,1.2670835607718895
-0.9414299802951046,-0.5013146809460045,-3.6178051631236583,-3.177854699100428,6.1601291526902475,1.1257196922504111
-0.9464431271045647,-0.43971338941910204,-3.6495837101146624,-3.166597502177924,6.272982074162309,0.9947586063570855
-0.9508402609987557,-0.37698356867747895,-3.6812496851364416,-3.156649916114353,6.385774901486747,0.8746648078205833
-0.9546100966855305,-0.3131258196626115,-3.7128161842975853,-3.1479032680361474,6.499394702239361,0.7657502863843478
-0.9577413548821566,-0.24813187264021788,-3.744295216977947,-3.140245765172304,6.614593755033143,0.6681294767228089
-0.9602226736085588,-0.18198593508988645,-3.77569767462967,-3.133564470405076,6.731951257205627,0.581666066286999
-0.9620425329594577,-0.11466642251783017,-3.807033319333721,-3.127747809742206,6.85183071613383,0.5059124932250203
-0.963189197184636,-0.04614811535649187,-3.838310797431143,-3.122688684809956,6.974334741714323,0.44004420446301645
-0.963650678338201,0.023595232060651367,-3.8695376842792424,-3.118288242765326,7.099260107953363,0.38279232677074726
-0.9634147260175945,0.094587833140185,-3.900720566706896,-3.1144603194976184,7.2260572894019335,0.3323802733973064
-0.9624688476861927,0.16684840603420434,-3.931865169901872,-3.1111365167636453,7.3538000694461925,0.286471790874764
-0.9608003636258506,0.24038640672866626,-3.962976535069508,-3.1082717988548976,7.481172031987855,0.24213973456870297
-0.958396499558564,0.31519812704854483,-3.994059253058057,-3.1058504015092105,7.606477457011799,0.19586599515848263
-0.9552445182880785,0.39126290161866284,-4.025117757073149,-3.103891741557626,7.727683945174837,0.1435829225391408
-0.9513318892718919,0.4685397410704112,-4.056156674488725,-3.1024559123322346,7.842502600088436,0.08076473900571114
-0.9466464918611879,0.5469647670712956,-4.087181233612047,-3.1016482649421775,7.9485085228012675,0.002573381442829346
-0.9411768441904749,0.6264498522993083,-4.118197716261469,-3.101622531127749,8.04329971276884,-0.09594309775999192
-0.9349123456674818,0.7068828494269966,-4.1492139415727465,-3.102581962105349,8.124686619557368,-0.21960951519421043
-0.9278435171732119,0.7881297156225703,-4.1802397611938,-3.104778057257291,8.190898411895743,-0.37285856192368577
-0.9199622200169862,0.8700386997415277,-4.211287541766373,-3.108506642876528,8.24078677570549,-0.5594680685945479
-0.911261833019571,0.9524465674985826,-4.242372608195138,-3.114101323562473,8.274005109288625,-0.782331349019096
-0.9017373673445852,1.0351866185914689,-4.273513621430763,-3.121924637052664,8.29114149339518,-1.043291365351266
-0.8913855011586705,1.1180980335254207,-4.30473286780129,-3.1323575507061765,8.293788260426899,-1.3430639697208577
-0.8802045208234164,1.2010359161296897,-4.336056443308352,-3.145788190403385,8.284538923796402,-1.6812650964601197
-0.8681941616621195,1.2838813053676539,-4.367514325212386,-3.1626008413679862,8.266913280909689,-2.056543327842102
-0.855355348608443,1.3665504381767508,-4.3991403336260655,-3.1831662746464073,8.245221690327513,-2.4668054412742433
-0.8416898442266755,1.449002655080026,-4.43097199637253,-3.20783432905915,8.224387804233041,-2.9095112172632027
-0.8271998176758752,1.5312465331223564,-4.463050339663122,-3.2369294412317817,8.209753884864808,-3.382007140064043
-0.8118873523446517,1.6133440719710044,-4.495419634075439,-3.270749512632422,8.206893628142671,-3.881867634722111
-0.7957539116249417,1.695413008252431,-4.5281271292017635,-3.309568188979643,8.221454527440414,-4.407216777172289
-0.7787997815424174,1.777627553526835,-4.56122281109156,-3.353640356751366,8.259046368912404,-4.9570115396480405
-0.761023506007149,1.860218017215959,-4.594759214659073,-3.4032104721478467,8.325185950641654,-5.531277623468027
-0.7424213258349893,1.9434698767223755,-4.628791319380552,-3.458523248382527,8.425301992801952,-6.1312988855870145
-0.7229866270677656,2.027722896650395,-4.663376551864377,-3.519836237238397,8.564799520484314,-6.759769889975819
-0.7027093981012617,2.1133708918552383,-4.698574914236761,-3.5874339361381553,8.749180327586856,-7.420927517757333
-0.6815756891827093,2.2008626951311068,-4.734449253598142,-3.6616432113157287,8.98421558462119,-8.12068183189637
-0.6595670622313982,2.2907048509773187,-4.771065685711299,-3.7428500296346923,9.276168028885063,-8.866768992345756
-0.636660013721625,2.383466531266169,-4.808494186007646,-3.83151771955815,9.632064106857438,-9.668950706448735
-0.6128253484089633,2.4797871723347433,-4.846809363203228,-3.928207226622637,10.060020534911745,-10.539286287226107
-0.5880274766856158,2.5803873776838606,-4.886091435469454,-4.0336000894948985,10.569634654660652,-11.492505575828233
-0.5622236029087773,2.686083724230467,-4.926427436364403,-4.14852514525318,11.172453344374956,-12.546514187533758
-0.5353627656664726,2.797808257674217,-4.967912687816934,-4.273990287128518,11.882540618181018,-13.723066682885937
-0.5073846830897304,2.916633663856027,-5.0106525906882196,-4.411220953957377,12.717168368702295,-15.048647289607397
-0.4782183464511701,3.04380534754305,-5.054764800227793,-4.561707426853451,13.697655569888962,-16.55559861058555
-0.4477802929757396,3.18078190324194,-5.100381874496327,-4.7272634129593065,14.850373046936097,-18.28352883074872
-0.4159724739433202,3.329285633711301,-5.14765450862592,-4.910098701266794,16.207900931292794,-20.28099004523858
-0.3826796176062072,3.491364643024229,-5.196755495638588,-5.112908601719179,17.810245796794558,-22.607315777434806
