th1 (rad),w1 (rad/s),th2 (rad),w2 (rad/s),a1 (rad/s^2),a2 (rad/s^2)
5.87684172956298,-2.8771357200703522,4.647828089860813,-0.7286659105755576,0.7177774914970594,17.338112476895922
5.848070372362276,-2.869957945155382,4.640541430755057,-0.5552847858065983,0.9416869316211234,17.139247824446247
5.819370792910722,-2.8605410758391705,4.634988582896991,-0.3838923075621359,1.1265610878857666,16.925449114068254
5.790765382152331,-2.849275464960313,4.63114965982137,-0.21463781642145333,1.2745098861254964,16.69996857032725
5.762272627502727,-2.836530366099058,4.629003281657155,-0.04763813071818082,1.3878475484628436,16.46591563826565
5.733907323841737,-2.8226518906144293,4.628526900349973,0.11702102566447567,1.4690766881834294,16.226160646563653
5.705680804935593,-2.807961123732595,4.629697110606618,0.2792826321301122,1.5208853807975742,15.983238369877462
5.677601193698267,-2.7927522699246192,4.63248993692792,0.4391150158288868,1.5461598257259728,15.73924828263359
5.649673670999021,-2.7772906716673593,4.636881087086208,0.5965074986552227,1.548015329787018,15.495747446496457
5.621900764282347,-2.761810518369489,4.64284616207276,0.7514649731201872,1.5298484945336983,15.253631216976236
5.594282659098652,-2.7465120334241524,4.650360811803962,0.9040012852899496,1.4954135944286642,15.01299639934925
5.56681753876441,-2.7315578974798655,4.659400824656862,1.054131249283442,1.448926041570784,14.772981325720098
5.539501959789612,-2.7170686370641577,4.669942137149696,1.201861062540643,1.3951952875262288,14.53157790019755
5.51233127341897,-2.7031166841888954,4.681960747775102,1.3471768415426184,1.3397880978040428,14.285412517988588
5.485300106577081,-2.6897188032108548,4.695432516190529,1.4900309667225042,1.2892202132351644,14.029496758550403
5.458402918544972,-2.676826601078503,4.710332825857754,1.6303259343080083,1.2511690685443166,13.756956120255149
5.431634652534187,-2.66431491039306,4.726636085200834,1.76789549551056,1.2346912563225443,13.45875745506208
5.4049915034302565,-2.6519679978298347,4.744315040155939,1.9024830700611808,1.2504143943100559,13.123475096945931
5.378471823451958,-2.6394638538867343,4.7633398708565515,2.03371782103064,1.3106527520065536,12.737163619709284
5.3520771849130915,-2.626357326366669,4.783677049066858,2.161089457227733,1.4293692816823587,12.283441866696235
5.325813611649425,-2.612063633549845,4.805287943639136,2.2839238758946956,1.621876230449649,11.743934660732961
5.299692975313926,-2.5958448712453484,4.828127182398083,2.401363222502025,1.9041403647638067,11.099254199973878
5.273734526601473,-2.5768034675977103,4.852140814623103,2.512355764501764,2.291553581537025,10.330709604001134
5.247966491925496,-2.55388793178234,4.877264372268121,2.6156628605417755,2.797071787926845,9.42287374797833
5.222427612607673,-2.525917213903072,4.903421000873538,2.7098915980215588,3.428746202811266,8.366967561560632
5.1971684404686425,-2.4916297518749593,4.930519916853754,2.793561273637165,4.186892174578455,7.164715539206244
5.172252142949893,-2.4497608301291747,4.958455529590125,2.8652084290292272,5.061439228614423,5.831913950436536
5.147754534648602,-2.3991464378430303,4.987107613880418,2.9235275685335926,6.030283552337072,4.400573744375855
5.123763070270171,-2.3388436023196597,5.016342889565753,2.967533305977351,7.059542205080706,2.9184018478015212
5.1003746342469745,-2.2682481802688526,5.046018222625527,2.996717324455366,8.106302934410445,1.4448217862877704
5.0776921524442855,-2.187185150924748,5.075985395870081,3.0111655423182437,9.12373677663177,0.0437549780680827
5.055820300935038,-2.0959477831584303,5.106097051293263,3.0116030920989245,10.06753202389899,-1.2253523749567525
5.034860823103454,-1.9952724629194405,5.136213082214252,2.999349568349357,10.901980347371577,-2.3159135195595253
5.014908098474259,-1.8862526594457247,5.1662065778977455,2.9761904331537616,11.604095927081184,-3.199749735531371
4.996045571879802,-1.770211700174913,5.195968482229283,2.9441929357984478,12.164889785136236,-3.8686156754899814
4.978343454878052,-1.6485628023235506,5.2254104115872675,2.905506779043548,12.587945942802369,-4.331954931735273
4.961857826854817,-1.5226833428955269,5.254465479377703,2.862187229726195,12.886225578192457,-4.61222150461512
4.946630993425861,-1.3938210871136023,5.283087351674965,2.816065014680044,13.078271560389862,-4.739428630525853
4.932692782554725,-1.2630383715097038,5.311248001821765,2.7686707283747856,13.184761336158239,-4.7462529111996
4.920062398839629,-1.1311907581481213,5.338934709105513,2.7212081992627897,13.225921560417907,-4.664400044320195
4.908750491258147,-0.9989315425439422,5.366146791098141,2.6745641988195876,13.219916327459455,-4.522370972559252
4.898761175832708,-0.8667323792693477,5.392892433086337,2.629340489093995,13.182069733839647,-4.34441642254184
4.890093852040015,-0.7349116819309511,5.4191858379772775,2.585896324868577,13.12468563555532,-4.150334609893869
4.882744735220705,-0.6036648255753979,5.445044801225963,2.544392978769638,13.057231658579614,-3.955777241898326
4.8767080869649515,-0.47309250898960176,5.47048873101366,2.5048352063506547,12.986705461795733,-3.7728040667956946
4.871977161875056,-0.3432254543716444,5.495537083077166,2.4671071656826977,12.91806127167264,-3.6105129364687296
4.868544907331339,-0.21404484165491802,5.520208154733993,2.4310020363180103,12.854625432479367,-3.4756450170208386
4.86640445891479,-0.08549858733012436,5.544518175097173,2.396245586147802,12.798465835440233,-3.3731162329012307
4.865549473041488,0.04248607102427798,5.568480630958652,2.3625144238187894,12.750702815321228,-3.3064582350317995
4.865974333751731,0.16999309917749025,5.592105775196839,2.3294498414684712,12.711761828859059,-3.2781701110319066
4.867674264743505,0.29711071746608086,5.615400273611524,2.296668140358152,12.68157437153753,-3.289990632664794
4.870645371918166,0.42392646118145616,5.638366955015106,2.263768234031504,12.659735804450055,-3.3431038693585893
4.8748846365299805,0.5505238192259567,5.661004637355421,2.2303371953379183,12.645628857100421,-3.4382910628832843
4.8803898747222405,0.6769801077969609,5.6833080093088,2.1959542847090856,12.63852066191359,-3.576040343537434
4.88715967580021,0.8033653144160968,5.705267552155891,2.1601938812737114,12.637639898548874,-3.7566240720339126
4.895193328944371,0.9297417134015855,5.726869490968628,2.122627640553372,12.642239312382005,-3.9801517780140756
4.904490746078387,1.0561641065254055,5.748095767374162,2.0828261227732314,12.65164767303623,-4.246605043270625
4.915052387143641,1.1826805832557679,5.768924028601894,2.0403600723405253,12.665314207197117,-4.5558593107239345
4.926879192976198,1.309333725327739,5.7893276293252995,1.994801479233286,12.682847675493285,-4.9076964809736205
4.9399725302294755,1.4361622020826719,5.8092756441176325,1.9457245144235498,12.704051542258698,-5.30181124389161
4.954334152250302,1.5632027175052587,5.828732889261868,1.8927064019846336,12.728956075712887,-5.737813325057796
4.969966179425355,1.6904922782623877,5.847659953281714,1.8353282687340555,12.757847676582301,-6.215227140961598
4.986871102207979,1.8180707550282107,5.866013235969055,1.7731759973244396,12.791295224517064,-6.7334896829545166
5.005051809758261,1.9459837072733814,5.883744995942299,1.7058411004948946,12.830172707859175,-7.291946710652966
5.024511646830995,2.074285434351973,5.900803406947248,1.632921633388365,12.875676807851264,-7.889846440360776
5.045254501174515,2.2030422024304857,5.917132623281132,1.5540231689847572,12.92933737119001,-8.526328750455281
5.06728492319882,2.332335576142386,5.9326728549709795,1.4687598814802043,12.993017726544009,-9.200406346017541
5.090608278960245,2.462265753407826,5.947360453785781,1.376755818020029,13.068900443067596,-9.910932129261957
5.115230936494323,2.592954757838502,5.9611280119659815,1.2776464967274095,13.159452195897277,-10.656543934334694
5.141160484072708,2.7245492797974746,5.973904476933256,1.1710810573840624,13.267358617559262,-11.435573421831583
5.168405976870683,2.857222865973067,5.9856152875070965,1.0567253231657465,13.395415987961087,-12.245899763879775
5.196978205530414,2.991177025852678,5.996182540738754,0.9342663255269488,13.546360823584827,-13.084720080263768
5.22688997578894,3.1266406340885267,6.005525203994024,0.8034191247243111,13.722610188279852,-13.948196511767778
5.258156382129825,3.2638667359713254,6.013559395241267,0.6639371596066334,13.925874057375943,-14.830923300524427
5.290795049489539,3.403125476545085,6.020198766837334,0.5156279266013891,14.156585539671564,-15.72513534006389
5.32482630425499,3.5446913319418005,6.025355046103348,0.3583765732007502,14.413074860729617,-16.619552131504886
5.360273217574408,3.6888220805490968,6.0289388118353555,0.19218105188570136,14.690389855804845,-17.497719903204388
5.397161438379898,3.835725979107145,6.030860622354212,0.017203852853657498,14.978644056316078,-18.3356871053521
5.43551869817097,3.985512419670306,6.031032660882749,-0.1661530181998635,15.260765904848194,-19.098843268969546
5.475373822367673,4.138120078718788,6.029371130700751,-0.35714145088955895,15.509557257102777,-19.73780913213384
5.516755023154861,4.293215651289816,6.025799716191855,-0.5545195422108974,15.684101082899321,-20.18346604515258
5.559687179667759,4.450056662118809,6.020254520769746,-0.7563542026624233,15.725881313836913,-20.341689219393963
5.604187746288948,4.607315475257177,6.012690978743122,-0.9597710948563629,15.555623638878858,-20.089288031983067
5.650260901041519,4.762871711645966,6.003093267794559,-1.1606639751761936,15.072945797638248,-19.274209921974204
5.697889618157979,4.913601169622348,5.9914866280427965,-1.3534060743959357,14.162314888093293,-17.725071086266528
5.747025629854202,5.055224318503281,5.977952567298837,-1.530656785258601,12.709816331038684,-15.276475510404763
5.797577873039235,5.182322481813667,5.962645999446251,-1.6834215403626487,10.634012283431941,-11.814739097474234
5.849401097857371,5.288662604647986,5.945811784042625,-1.801568931337391,7.92808614629943,-7.339799291079833
5.902287723903851,5.36794346611098,5.927796094729251,-1.8749669242481894,4.69883194666691,-2.0222808806265733
5.9559671585649605,5.414931785577649,5.909046425486769,-1.8951897330544552,1.1771391191711993,3.781054224282772
6.010116476420737,5.426703176769362,5.890094528156225,-1.8573791908116275,-2.321434789603114,9.58463754475909
6.06438350818843,5.40348882887333,5.871520736248109,-1.7615328153640366,-5.480212286134342,14.89623667543325
6.118418396477163,5.3486867060119865,5.853905408094469,-1.612570448609704,-8.069724796071807,19.347348406102043
6.171905263537283,5.267989458051268,5.837779703608372,-1.4190969645486837,-9.995149163661186,22.765452416607538
6.224585158117796,5.168037966414656,5.823588733962885,-1.1914424403826083,-11.28708283391224,25.164187634460024
6.276265537781942,5.055167138075533,5.811674309559059,-0.939800564038008,-12.055820602610215,26.679423017214575
6.326817209162697,4.934608932049431,5.8022763039186795,-0.6730063338658623,-12.440729667984519,27.496503282073874
6.376163298483191,4.8102016353695864,5.795546240580021,-0.39804130104512353,-12.574483914584546,27.797677954374084
6.424265314836887,4.684456796223741,5.79156582756957,-0.12006452150138269,-12.565766950474961,27.735686083375974
6.471109882799125,4.558799126718991,5.790365182354556,0.15729233933237707,-12.495321863265925,27.426683933454644
6.516697874066314,4.433845908086332,5.79193810574788,0.4315591786669235,-12.418890116325105,26.953462108885446
6.561036333147178,4.309657006923081,5.796253697534549,0.701093799755778,-12.37248342460618,26.372410040942405
6.604132903216409,4.18593217267702,5.803264635532107,0.9648179001652021,-12.377621760141473,25.72073417313578
6.645992224943179,4.062155955075605,5.812912814533759,1.22202524189656,-12.44563899713108,25.022527818125923
6.686613784493935,3.9376995651042943,5.825133066952725,1.4722505200778193,-12.580908970972148,24.293386702145593
6.725990780144978,3.8118904753945726,5.839855572153503,1.7151843870992753,-12.783143901274745,23.543719446028472
6.764109684898924,3.684059036381825,5.857007416024496,1.95062158155956,-13.048990356464593,22.781030681972574
6.800950275262742,3.553569132817179,5.8765136318400915,2.178431888379286,-13.373129111088186,22.011445703480167
6.836485966590914,3.4198378417062973,5.898297950723884,2.3985463454140876,-13.749039542563345,21.24069347661094
6.870684345007977,3.2823474462806637,5.9222834141780245,2.610953280180197,-14.169543393133255,20.47470908346754
6.903507819470783,3.140652012349331,5.948392946979826,2.8157003710148727,-14.627205313315367,19.719970484820283
6.934914339594276,2.9943799592161775,5.976549950689975,3.0129000758630755,-15.114639631204879,18.98365001761616
6.964858139186438,2.8432335629041288,6.006678951448606,3.202736576039237,-15.624752752389204,18.273636482806317
6.993290474815479,2.6869860353802366,6.038706317208998,3.3854729408673,-16.15093647913475,17.59846630485097
7.020160335169281,2.525476670588889,6.072561046617671,3.5614576039158097,-16.68721751645406,16.967189494521918
7.045415101875171,2.3586044954243484,6.108175622656829,3.731129498861029,-17.228360987984356,16.389185886325954
7.0690011468294145,2.1863208855445047,6.14548691764544,3.8950213577242887,-17.769919635727895,15.873937590921296
7.090864355684859,2.0086216891872257,6.1844371312226825,4.053760733633502,-18.308214353751072,15.43075325687608
7.110950572576732,1.825539545649715,6.224974738559017,4.208068266202263,-18.840224615118416,15.068427060923765
7.1292059680332285,1.637137299498531,6.267055421221039,4.3587525368115,-19.36335787280181,14.794798683298058
7.145577341028214,1.4435037207705128,6.310642946589154,4.506700523644481,-19.875053646304803,14.61615795566237
7.160012378235919,1.2447531843074648,6.355709951825599,4.652862103201104,-20.3721591441611,14.5364072654634
7.172459910078993,1.0410315928658538,6.40223857285761,4.7982261758557385,-20.849987626714658,14.555854311006383
7.182870226007652,0.8325317165987072,6.450220834616167,4.943784718965802,-21.30093846134948,14.669457356180873
7.191195543173639,0.6195223319852123,6.499658681805825,5.090479292527611,-21.712523369539927,14.864290154396903
7.197390766493491,0.40239709828981307,6.550563474731101,5.23912219407158,-22.064621257961385,15.115953213841186
7.201414737476389,0.18175088571019923,6.602954696671817,5.3902817262099925,-22.325810401492195,15.383680569254533
7.203232246333491,-0.04150721830472273,6.656857513933916,5.544118531902538,-22.448778644646616,15.604081864809404
7.202817174150444,-0.26599500475118887,6.712298699252941,5.700159350550632,-22.365232534485326,15.68401585590715
7.200157224102932,-0.4896473300960421,6.769300292758448,5.856999509109704,-21.98163295057577,15.494319216065819
7.195260750801971,-0.7094636596017998,6.827870287849545,6.011942701270362,-21.17869446378301,14.868326719220802
7.188166114205953,-0.9212506042396299,6.887989714862249,6.16062596846257,-19.819793802804362,13.61219888024708
7.178953608163557,-1.1194485422676737,6.949595974546875,6.296747957265041,-17.77506764054742,11.536442898638892
7.16775912274088,-1.2971992186731478,7.012563454119525,6.41211238625143,-14.965868574850639,8.515323092618337
7.154787130554149,-1.446857904421654,7.076684577982039,6.4972656171776135,-11.423809620554142,4.566761932819628
7.140318551509932,-1.5610960006271954,7.141657234153816,6.54293323650581,-7.339337845559946,-0.08100924987119718
7.124707591503659,-1.6344893790827948,7.207086566518874,6.542123144007098,-3.0598382639952626,-4.990367925665069
7.108362697712831,-1.6650877617227473,7.272507797958945,6.492219464750447,0.9879307429292752,-9.617115244116613
7.091711820095604,-1.6552084542934546,7.33742999260645,6.396048312309281,4.425229360577389,-13.480120958795126
7.07515973555267,-1.6109561606876808,7.401390475729542,6.26124710272133,7.027996313548745,-16.302315478352487
7.059050173945793,-1.5406761975521932,7.4640029467567555,6.0982239479378055,8.756253972952079,-18.047417796289885
7.043643411970271,-1.4531136578226724,7.524985186236133,5.917749769974907,9.709620622807021,-18.85833457118639
7.029112275392044,-1.3560174515946022,7.584162683935882,5.729166424263043,10.054526897576393,-18.959520973820222
7.015552100876098,-1.2554721826188382,7.641454348178512,5.53957121452484,9.964282247396788,-18.578300636258266
7.002997379049909,-1.1558293601448704,7.696850060323761,5.353788208162258,9.586516481592156,-17.903603877758222
6.9914390854484605,-1.059964195328949,7.750387942405383,5.174752169384676,9.033168333204499,-17.07472880118106
6.980839443495171,-0.9696325119969039,7.80213546409923,5.0040048813728655,8.382877573723452,-16.186104903386326
6.971143118375202,-0.8858037362596693,7.852175512912958,4.842143832339002,7.687923536958572,-15.297508085087316
6.962285081012605,-0.8089245008900836,7.9005969512363485,4.689168751488129,6.981513540319372,-14.444259667677295
6.954195836003704,-0.7391093654868899,7.94748863875123,4.5447261548113564,6.283803900402439,-13.64542109972633
6.946804742348835,-0.6762713264828655,7.992935900299343,4.408271943814093,5.606352671643782,-12.909720358034106
6.940042029084006,-0.6202077997664277,8.037018619737484,4.279174740233752,4.95521595515278,-12.239584269622963
6.933839951086342,-0.5706556402148999,8.079810367139821,4.156778897537523,4.333021314619458,-11.633775658503753
6.928133394684193,-0.5273254270687053,8.121378156115195,4.040441140952485,3.7403218182090767,-11.089068795647469
6.922860140413506,-0.4899222088866146,8.161782567524721,3.92955045299601,3.176463926040063,-10.601287568492767
6.917960918324639,-0.45815756962621396,8.201078072054681,3.8235375773110825,2.64013472512424,-10.165931981271777
6.913379342628377,-0.4317562223749716,8.239313447827792,3.7218782574983647,2.12970099607845,-9.778543543181277
6.9090617804046275,-0.4104592124141871,8.276532230402776,3.624092822066552,1.6434146780014542,-9.434907536360537
6.904957188280486,-0.39402506563417256,8.312773158623441,3.5297437467029464,1.1795334316802815,-9.131154920073369
6.901016937624144,-0.38222973131736976,8.348070596090471,3.438432197502213,0.7363878187480553,-8.863803601598772
6.89719464031097,-0.3748658531298892,8.382454918065493,3.3497941614862254,0.31241537321592266,-8.629763987066609
6.893445981779672,-0.37174169939772994,8.415952859680356,3.263496521615559,-0.09382544859003647,-8.426324282485492
6.8897285647856945,-0.3726799538836303,8.448587824896512,3.1792332787907043,-0.4836531587610403,-8.251125036673903
6.886001765246858,-0.37751648547124067,8.480380157684419,3.096722028423965,-0.8582677165775043,-8.102128652169482
6.882226600392146,-0.3860991626370157,8.511347377968658,3.0157007419022706,-1.2187582883317936,-7.977587230262206
6.878365608765776,-0.39828674552033366,8.54150438538768,2.9359248695996483,-1.5661122291862826,-7.876010646199923
6.874382741310573,-0.4139478678121965,8.570863634083677,2.857164763137649,-1.9012240266945535,-7.79613584233408
6.87024326263245,-0.43296010807914204,8.599435281715055,2.779203404714308,-2.2249034548901943,-7.73689777254439
6.865913661551659,-0.45520914262804396,8.627227315762198,2.701834426988864,-2.5378825108609857,-7.697402099105661
6.8613615701253785,-0.4805879677366538,8.654245660032087,2.6248604059978073,-2.8408209090753935,-7.676899550143873
6.856555690448012,-0.5089961768274077,8.680494264092065,2.548091410496369,-3.134310035585443,-7.674761739692162
6.851465728679738,-0.5403392771832621,8.70597517819703,2.471343793099447,-3.418875342725748,-7.690458200432464
6.846062335907906,-0.5745280306105196,8.730688616128024,2.3944392110951225,-3.6949772135253345,-7.723534361342327
6.8403170556018,-0.6114778027457729,8.754633008238976,2.317203867481699,-3.9630103559919805,-7.773590206520119
6.8342022775743425,-0.6511079063056927,8.777805046913793,2.2394679654164977,-4.22330180895569,-7.840259370448882
6.827691198511285,-0.6933409243952496,8.800199726567957,2.161065371712009,-4.476107658917261,-7.923188455208958
6.820757789267333,-0.7381020009844222,8.821810380285077,2.0818334871599196,-4.721608585294467,-8.022016395118282
