th1 (rad),w1 (rad/s),th2 (rad),w2 (rad/s)
3.682977772963323,0.35668742351906296,1.3449229636909834,-2.6970787493260597
3.6865446471985135,0.3454748982043186,1.3179521761977229,-2.799456983321932
3.6899993961805566,0.3317308291990374,1.2899576063645035,-2.9033458984835585
3.693316704472547,0.31549503053655703,1.260924147379668,-3.0087359356946632
3.696471654777912,0.29684869360442234,1.2308367880227213,-3.1155706223711395
3.699440141713956,0.2759246767665169,1.19968108179901,-3.2237335835075402
3.7021993884816213,0.25291951665652723,1.1674437459639346,-3.3330334132391224
3.7047285836481865,0.2281071317800689,1.1341134118315435,-3.443186425499836
3.707009654965987,0.20185400915133922,1.0996815475765451,-3.553797519334154
3.7090281950575004,0.1746353970311897,1.0641435723832036,-3.664339720935417
3.7107745490278123,0.14705165362980102,1.0275001751738493,-3.7741334241242184
3.7122450655641104,0.11984341428057807,0.9897588409326071,-3.882326956635709
3.713443499706916,0.09390364986093214,0.9509355713662501,-3.9878808395245273
3.7143825362055254,0.07028404484636014,0.9110567629710048,-4.089558925288548
3.715085376653989,0.05019252596079156,0.8701611737181193,-4.1859303738300255
3.715587301913597,0.034978392137483584,0.828301869979819,-4.275386944378844
3.715937085834972,0.026101572658747414,0.7855480005360306,-4.356180047474514
3.7161981015615595,0.02508335161295509,0.7419862000612855,-4.426481061669643
3.7164489350776893,0.033437686362677375,0.6977213894445891,-4.484466260623114
3.716783311941316,0.05258509896756995,0.652876726838358,-4.528424196522575
3.7173091629309916,0.08375480750590304,0.6075924848731322,-4.556878804608032
3.7181467110060504,0.12788464802914024,0.5620236968270519,-4.56871660988992
3.7194255574863417,0.18553138904673067,0.5163365307281527,-4.563302500825354
3.721280871376809,0.25680508508429006,0.4707035057198991,-4.540567051780096
3.723848922227652,0.3413392738672817,0.42529783520209813,-4.5010504456081915
3.7272623149663247,0.4383039825571311,0.38028733074601623,-4.445893847974704
3.7316453547918957,0.5464615810092899,0.3358283922662692,-4.376777535751199
3.737109970601989,0.6642582441871117,0.29206061690875723,-4.295814065428133
3.74375255304386,0.789938120453753,0.2491024762544759,-4.205411876202672
3.751651934248397,0.9216646701152643,0.20704835749244918,-4.108128184973657
3.7608685809495497,1.0576344170872949,0.16596707564271262,-4.006529341482001
3.7714449251204227,1.196171858302737,0.1259017822278926,-3.90307276627188
3.78340664370345,1.335799164433618,0.0868710545651738,-3.800018788045053
3.796764635347786,1.4752791788044262,0.04887086668472327,-3.6993748250164584
3.81151742713583,1.6136340632809458,0.011877118434558687,-3.6028696591619322
3.8276537677686395,1.7501443005881234,-0.024151578157060635,-3.511952601042976
3.8451552107745206,1.884333687475625,-0.059271104167490395,-3.4278111092007264
3.8639985476492766,2.0159457850701417,-0.09354921525949766,-3.3514005230363186
3.884158005499978,2.1449164671673904,-0.12706322048986085,-3.2834804836281446
3.9056071701716517,2.2713461114657694,-0.1598980253261423,-3.2246538952379695
3.9283206312863093,2.3954738878325865,-0.192144564278522,-3.17540559232854
3.952275370164635,2.51765566822107,-0.2238986202018074,-3.1361390323517293
3.977451926846846,2.6383463775424434,-0.2552600105253247,-3.107210254510621
4.00383539062227,2.758087125580664,-0.28633211307043094,-3.088959023901815
4.031416261878077,2.8774971772031748,-0.3172217033094491,-3.0817375532901945
4.060191233650109,2.997270690825999,-0.348039078842351,-3.08593751081246
4.0901639405583685,3.118178143290186,-0.3788984539504756,-3.1020162308685113
4.12134572199127,3.241072428932103,-0.4099186162591607,-3.1305231891583993
4.153756446280592,3.3668997439802917,-0.4412238481507447,-3.172127910857646
4.187425443720395,3.4967155198727466,-0.4729451272593212,-3.227650566892096
4.222392598919122,3.631705821961161,-0.5052216329282422,-3.298096567920087
4.258709657138734,3.7732147372309637,-0.538202598607443,-3.384696441839082
4.296441804511044,3.922778247394022,-0.5720495630258339,-3.488952061312498
4.335669586984984,4.08216474159132,-0.6069390836389589,-3.612689619312077
4.3764912344008975,4.253421296250362,-0.6430659798320797,-3.758118107056912
4.419025447363401,4.438922383750109,-0.6806471609026488,-3.9278883574975905
4.463414671200902,4.641412236520786,-0.7199260444776246,-4.125139810825503
4.50982879356611,4.864020618893616,-0.7611774425858797,-4.3535056979996405
4.558468999755046,5.110208204871587,-0.8047124995658761,-4.617013805936152
4.609571081803762,5.383550730330855,-0.8508826376252376,-4.919753340399493
4.663406589107071,5.687181052739222,-0.9000801710292325,-5.26505118753145
4.720278399634463,6.022549552273603,-0.952730682904547,-5.653677129826807
4.7805038951571985,6.386933931950149,-1.009267454202815,-6.0802749240784
4.8443732344767,6.768982885205012,-1.0700702034435992,-6.527011880899102
4.91206306332875,7.142204887649024,-1.1353403222525902,-6.954328990464375
4.983485112205241,7.459446061860665,-1.204883612157234,-7.293101920204938
5.058079572823847,7.658205336067033,-1.2778146313592833,-7.452136352038191
5.134661626184518,7.68871845422629,-1.3523359948796652,-7.357884708779969
5.2115488107267804,7.552630397680122,-1.4259148419674648,-7.009288569915396
5.2870751147035815,7.307257908165279,-1.4960077276666188,-6.4842939212774855
5.360147693785234,7.024747653941844,-1.5608506668793938,-5.882681785692058
5.430395170324653,6.755614649606471,-1.6196774847363145,-5.274633022315208
5.497951316820718,6.5234426237412,-1.6724238149594666,-4.692885916936802
5.5631857430581295,6.33473703368729,-1.7193526741288345,-4.1462751477565245
5.626533113395002,6.188126434988611,-1.7608154256063997,-3.632528041129177
5.688414377744889,6.079457961659529,-1.7971407060176914,-3.1454146055686643
5.749208957361484,6.004043779801593,-1.8285948520733781,-2.677957719745843
5.809249395159499,5.957486614235268,-1.8553744292708365,-2.2236763326303097
5.868824261301852,5.93589088537333,-1.8776111925971397,-1.7769805007809798
5.928183170155585,5.935833705451052,-1.8953809976049496,-1.3332386160179133
5.9875415072100955,5.954254991906183,-1.9087133837651287,-0.888737865320363
6.047084057129157,5.9883308822854735,-1.9176007624183322,-0.4406251711737246
6.106967365952012,6.035355054317884,-1.9220070141300694,0.013141315134676312
6.167320916495191,6.092636986166541,-1.9218756009787226,0.4738240610701169
6.228247286356856,6.157420609670328,-1.9171373603680213,0.9419251505512176
6.28982149245356,6.226825123977226,-1.907718108862509,1.4172001553077325
6.352089743693332,6.297809290413923,-1.8935461073094317,1.8986757347212804
6.415067836597471,6.3671601507164,-1.8745593499622188,2.3846793534478623
6.478739438104635,6.431506322049158,-1.8507125564277402,2.872887852507553
6.543054501325127,6.487354732293168,-1.8219836779026648,3.3603989901937736
6.607928048648058,6.531148039018893,-1.788379688000727,3.8438268011505006
6.673239529038248,6.559338373560306,-1.749941419989222,4.319418211434349
6.738832912773851,6.568471883977667,-1.7067472378748785,4.78318543792222
6.804517631613628,6.5552781619002705,-1.6589153834956563,5.231046910861053
6.8700704132326305,6.516759163220438,-1.6066049143870458,5.658969173818388
6.935238004864835,6.450273514768656,-1.550015222648862,6.063103420340224
6.999740740012522,6.353613707583683,-1.4893841884454597,6.439912561659892
7.0632768770883585,6.2250750315539305,-1.4249850628288607,6.786287196175148
7.125527627403898,6.063515671125056,-1.3571221908671092,7.099650695352872
7.186162784115148,5.868406868836815,-1.2861256839135804,7.378054163929086
7.244846852803517,5.639870566588755,-1.2123451422742895,7.620261050251313
7.301245558469404,5.378699952181608,-1.1361425317717764,7.825819001587727
7.35503255799122,5.086356663025739,-1.0578843417558992,7.9951139928647486
7.405896124621477,4.7649378885106595,-0.9779332018272517,8.12939988015584
7.453545503506583,4.4171079011756955,-0.8966392030256933,8.230796340377168
7.49771658251834,4.0459917762712125,-0.8143312396219217,8.302250224312509
7.538176500281052,3.6550337413843814,-0.7313087373787965,8.347459563206284
7.574726837694896,3.2478276885168604,-0.6478341417467337,8.370765016059226
7.607205114580064,2.827931575127851,-0.5641264915861415,8.3770191361802
7.635484430331343,2.398679593767193,-0.4803563002243395,8.37144812817557
7.659471226269015,1.9630055009933756,-0.39664181894258377,8.359522811719065
7.679101281278949,1.5232874914007644,-0.3130465908253931,8.346855040935363
7.694334156192957,1.0812202550086107,-0.22957804041603946,8.339133279697291
7.705146358743043,0.637714509269405,-0.14618670761906655,8.342107277210946
7.711523503835737,0.1928195527753161,-0.06276563484695709,8.361627718920417
7.713451699363491,-0.25433864959574554,0.02085064234224708,8.40374277278682
7.7109083128675335,-0.7056114987340703,0.10488807007011529,8.474849005637868
7.703852197880193,-1.163876913753524,0.18963656012649396,8.581886669616209
7.692213428742657,-1.6330728885777814,0.27545542682265606,8.732552464559493
7.67588269985688,-2.118171904621404,0.362780951468251,8.935461913720797
7.654700980810666,-2.6249776780083303,0.452135570605459,9.20009567054137
7.628451204030583,-3.159458411122162,0.5441365273108727,9.536138539181312
7.596856619919361,-3.725972724834179,0.6394979127026859,9.951327306746196
7.559596892671019,-4.323055333664141,0.7390111857701478,10.44596050755081
7.516366339334377,-4.934465657251644,0.8434707908456559,11.000848090583423
7.46702168276186,-5.5134610854816835,0.9534792717514902,11.555734987154477
7.411887071907043,-5.966040796008649,1.069036621623035,11.985854071743654
7.352226663946957,-6.163578239907701,1.1888951623404715,12.118344129560215
7.29059088154788,-6.026406191244022,1.3100786036360736,11.845793109105522
7.230326819635439,-5.616548979730763,1.4285365347271288,11.251625808083851
7.174161329838132,-5.087459715648095,1.5410527928079674,10.53959628031892
7.123286732681651,-4.558611015278354,1.6464487556111567,9.864004661716578
7.077700622528867,-4.080123774149118,1.7450888022283224,9.285115823089571
7.036899384787375,-3.6610721649132953,1.8379399604592181,8.809572734480742
7.000288663138242,-3.2953495940380764,1.9260356878040255,8.425559408949711
6.967335167197862,-2.9733751388253173,2.0102912818935224,8.118132783830408
6.937601415809609,-2.6860465674286904,2.0914726097318264,7.874072041701293
6.910740950135322,-2.4257125257717123,2.1702133301488393,7.682841195237843
6.886483824877605,-2.1861810794514014,2.2470417421012177,7.536369339462847
6.864622014083091,-1.962481667066881,2.3224054354958463,7.428573324600198
6.844997197412422,-1.750611149904664,2.396691168741848,7.354899109008625
6.827491085913375,-1.5473280376487522,2.4702401598319343,7.3119428113089
6.812017805536888,-1.3500060250463857,2.5433595879450235,7.297146912773823
6.798517745286424,-1.1565437833586458,2.616331057072762,7.308550424992082
6.786952307452838,-0.9653263572055715,2.6894165613226826,7.344570042297859
6.777299043880782,-0.7752354306317213,2.7628622617456613,7.403791353234527
6.769546689574464,-0.5857077938390082,2.8369001752780068,7.48475213208296
6.7636896116360745,-0.3968418962868896,2.9117476965988365,7.585703628575085
6.759721192673205,-0.20954991608155155,2.9876047328845874,7.704342127835282
6.75762569351239,-0.025745462012087827,3.0646481541629402,7.837514307425703
6.757368238892269,0.15145719469270333,3.1430232972371974,7.980918907628758
6.7588828108391965,0.3175787516999835,3.222832486313485,8.128855744680136
6.762058598356196,0.46671993218572705,3.3041210437602864,8.274108797009957
6.7667257976780535,0.5917152517358597,3.386862131730386,8.408081805843672
6.772642950195412,0.6845965987915005,3.4709429497888227,8.521308782993188
6.779488916183327,0.737420335821246,3.5561560376187544,8.60440571103785
6.78686311954154,0.7433983191005062,3.642200094729133,8.64939318833883
6.7942971027325445,0.6981151196855625,3.728694026612521,8.651129170192194
6.8012782539294,0.6004868597513386,3.815205318314443,8.60843974779571
6.807283122526914,0.4531219483558562,3.9012897157924002,8.524545615717004
6.811814342010472,0.26192394542836883,3.98653517194957,8.406601575341195
6.8144335814647565,0.035054770031791166,4.070601187702982,8.264498526300207
6.814784129165075,-0.2184048585046338,4.153246172965984,8.109331656005853
6.812600080580029,-0.48971590083861805,4.234339489526042,7.95198287968498
6.807702921571642,-0.7713986733870928,4.313859318322892,7.8021198670682
6.799988934837771,-1.0577238905832491,4.391880516993575,7.667702051113646
6.789411695931938,-1.3448361430164832,4.4685575375047115,7.554920951016577
6.775963334501773,-1.6306348407079139,4.544106747014878,7.468431054748236
6.759656986094694,-1.914539294405552,4.61879105756236,7.4117307544958475
6.740511593150638,-2.197233892259608,4.692908365107319,7.3875923425570695
6.718539254228042,-2.480452775908213,4.7667842885328895,7.398485616323808
6.69373472646896,-2.7668346372029946,4.840769144696128,7.446976413809745
6.66606638009693,-3.059860695266824,4.915238908834225,7.53610614335307
6.635467773144262,-3.3638808096228883,4.9905999702677555,7.669773162536902
6.601828965048033,-3.6842303378414005,5.067297701893125,7.853144486593091
6.564986661669619,-4.027438838891574,5.145829146759056,8.093126986532988
6.524712273280703,-4.401522658780534,5.226760416624385,8.398914378379187
6.480697046692898,-4.8163173855211285,5.310749560408177,8.78257632225338
6.432533872837687,-5.283692192248377,5.398575323630711,9.259500450949872
6.3796969509152035,-5.817159925385592,5.4911703281402096,9.848049272796542
6.321525351661347,-6.429502220545481,5.589650820868175,10.566560935072074
6.257230329455893,-7.124770391774528,5.695316430218896,11.422685183820946
6.185982625538148,-7.876379380668175,5.809543282057105,12.383539438170246
6.1072188317314655,-8.579709232993867,5.9333786764388075,13.310378958668547
6.021421739401527,-8.997809764290372,6.066482466025493,13.883086616584322
5.931443641758623,-8.84519458737481,6.205313332191336,13.715228326128791
5.842991695884875,-8.125203883905494,6.342465615452624,12.818094115240456
5.76173965704582,-7.187233280065131,6.470646556605028,11.672698133389934
5.689867324245169,-6.306658181194766,6.5873735379389275,10.64972779046044
5.626800742433221,-5.556617281296067,6.693870815843532,9.841735908669659
5.57123456962026,-4.924300875455719,6.792288174930229,9.22698744712184
5.521991560865703,-4.381267637165921,6.884558049401447,8.76534174365056
5.478178884494044,-3.902435275208717,6.972211466837952,8.423099078595323
5.4391545317419565,-3.468608080399981,7.0564424576239055,8.175681032664569
5.404468450937957,-3.0654702757948713,7.138199267950551,8.005784336164814
5.373813748180008,-2.6822764849977925,7.218257111312199,7.901268605830342
5.34699098333003,-2.3108594419691686,7.297269797370502,7.853518072976946
5.323882388910338,-1.9449845239589094,7.3758049781002715,7.8562493938580005
5.304432543670749,-1.5799812077084405,7.454367472038851,7.904621969673599
5.2886327315936645,-1.2125870118038284,7.533413691735587,7.994526561985684
5.276506861475626,-0.8409576767203255,7.6133589573554445,8.121965893955904
5.268097284708423,-0.46480717818598377,7.694578616295003,8.282477256089278
5.263449212926563,-0.08563771679721238,7.777403388855896,8.47058368609254
5.262592835758591,0.2929982082384219,7.8621092257168215,8.67930200360126
5.265522817840975,0.6652924167048513,7.948902245752834,8.899784206671644
5.272175742008024,1.0231565193297152,8.037900087819551,9.121215855867558
5.2824073072013205,1.3565229309193858,8.129112246378227,9.331119731853384
5.295972536510514,1.6540915124153286,8.22242344369676,9.516181422635961
5.3125134516346675,1.9045436169413714,8.31758525792312,9.663595437176928
5.331558887804081,2.0980744991445572,8.41422121229489,9.762733183844151
5.352539632795526,2.2279108630338103,8.511848544133333,9.806733076453432
5.374818741425864,2.291391000285922,8.609915874897867,9.79353533755411
5.397732651428723,2.290278616560771,8.707851228273409,9.726022251454852
5.42063543759433,2.230239471816366,8.805111450787958,9.611238746898378
5.442937832312494,2.1196969796006893,8.901223838256943,9.458988503317087
5.464134802108501,1.968445381854132,8.995813723290114,9.280255110573307
5.483819255927043,1.7863800937629821,9.088616274395847,9.085840741429429
5.501683056864673,1.5825633732503357,9.179474681810142,8.88543288858376
5.517508690597176,1.3646819210322136,9.268329010695979,8.687125107029825
5.5311555098074985,1.1388410831729345,9.355200261766278,8.497302759594698
5.542543920639228,0.9095936987501793,9.440173289362225,8.320767028977519
5.55163985762673,0.6801023872414863,9.523380959652,8.16098290440378
5.558440881499145,0.4523571567685425,9.604990788696037,8.020369247690715
5.56296445306683,0.22739753102927293,9.685194481172944,7.900581970610184
5.565238428377123,0.0055110886700873996,9.764200300879047,7.8027666670321
5.565293539263824,-0.21360402432230724,9.842227967549368,7.727773537019124
5.563157499020601,-0.430715673018389,9.91950570291956,7.676336843410963
5.558850342290417,-0.6469716642014278,9.99626907135367,7.649225778735401
5.552380625648403,-0.8638473953140652,10.072761329141024,7.647375434996426
5.5437421516952625,-1.0831233086480516,10.149235083490987,7.672006875325002
5.532910918608782,-1.3068886371836739,10.225955152244238,7.7247448139537145
5.519842032236945,-1.5375682413786143,10.303202600383775,7.8077402607773605
5.504466349823159,-1.7779686764593052,10.381280002991549,7.923803137598329
5.486686663058566,-2.0313364960289455,10.460518034367531,8.076544645467344
5.466373298098277,-2.301413119840319,10.541283480822205,8.270517076105373
5.4433591668998735,-2.592449751561345,10.62398865158326,8.511310881854971
5.41743466938426,-2.909098524495969,10.70910176040181,8.805505534451672
5.388343684139301,-3.2559922131586783,10.797156815746327,9.160230307040141
5.3557837620077136,-3.6366059285693724,10.888759118816727,9.581791412877157
5.31941770272202,-4.050568816575574,10.984577032945499,10.072232044473532
5.278912014556264,-4.487926138527667,11.085299353390234,10.621750045716887
5.234032753170987,-4.918487143761592,11.191516853847402,11.194332572951623
5.184847881733371,-5.277204641372507,11.303460179576918,11.707722168300652
5.132075835319646,-5.459486545472615,11.420537401259924,12.026557983986619
5.0774809698649195,-5.3605768350547,11.540802981099791,12.015360302546297
5.023875201514373,-4.963371941449211,11.660956584125254,11.656889152278398
4.97424148209988,-4.369457145654049,11.777525475648037,11.091500145524138
4.93054691064334,-3.7097102342694113,11.888440477103279,10.49364491114932
4.8934498083006455,-3.0635115907180386,11.993376926214772,9.964532501139516
4.862814692393465,-2.4581437075509873,12.093022251226166,9.534818660260575
4.838233255317956,-1.8949375536038293,12.188370437828771,9.201478104570512
4.819283879781918,-1.3665407513772343,12.280385218874477,8.95109275647222
4.805618472268145,-0.8641857369887268,12.3698961464392,8.769160263026768
4.796976614898258,-0.38010082367023673,12.457587749069466,8.642846334646215
4.793175606661556,0.09191085927135573,12.544016212415928,8.561362821836363
4.7940947152542694,0.5564821644031646,12.62962984063429,8.515637892658035
4.799659536898301,1.0168379951771584,12.714786219560871,8.497854949039276
4.809827916850073,1.474955215564809,12.799764769051263,8.501037433280429
4.824577469005721,1.9316927179073013,12.884775143384067,8.518722444890996
4.843894396184794,2.386894306572299,12.969962367832977,8.544725581316904
4.867763339250517,2.839477939136345,13.055409623646145,8.572989924872696
4.89615811864188,3.287526548941412,13.141139522894873,8.597511416195033
4.929033384131294,3.728393618580648,13.227114637056824,8.612333274511252
4.966317320317101,4.158832604419813,13.313237969801936,8.611601198354029
5.007905646361299,4.575153869702666,13.399353981785476,8.589668455631108
5.053657185058325,4.973406573608722,13.485250666341786,8.54123632782503
5.103391250794413,5.349576909342887,13.570663029620036,8.461511965813317
