th1 (rad),w1 (rad/s),th2 (rad),w2 (rad/s),a1 (rad/s^2),a2 (rad/s^2)
5.31159597590093,2.923979449884003,1.0866931823919905,0.5904742318801802,4.993983107331429,-13.888428258524835
5.34083577039977,2.9739192809573174,1.0925979247107924,0.4515899492949319,4.780114600433605,-14.4693010915191
5.370574963209343,3.0217204269616533,1.0971138242037417,0.3068969383797409,4.601653458274163,-15.030671526868355
5.40079216747896,3.067736961544395,1.100182793587539,0.15659022311105736,4.462978253568778,-15.572722276586383
5.4314695370944035,3.1123667440800826,1.1017486958186495,0.0008630003451935153,4.3684179580595,-16.0966328812128
5.462593204535204,3.1560509236606777,1.1017573258221014,-0.16010332846693448,4.32225434532548,-16.60468862561234
5.49415371377181,3.1992734671139327,1.100156292537432,-0.3261502147230579,4.3287464469260915,-17.100382282563796
5.52614644844295,3.242560931583194,1.0968947903902013,-0.49715403754869586,4.392180973338692,-17.58851029281544
5.5585720577587825,3.286482741316581,1.0919232500147145,-0.6730391404768503,4.516952207444165,-18.075267012261993
5.591436885171948,3.3316522633910224,1.085192858609946,-0.8537918105994702,4.707674449923908,-18.568342727065374
5.6247534078058585,3.3787290078902616,1.0766549405039512,-1.039475237870124,4.969329677885916,-19.07703304589058
5.658540697884761,3.428422304669121,1.06626018812525,-1.2302455683290299,5.307452632358017,-19.612368744587425
5.692824920931452,3.4814968309927012,1.0539577324419598,-1.4263692557749041,5.728354894050871,-20.187275742081898
5.727639889241379,3.53878037993321,1.0396940398842107,-1.6282420131957231,6.2393881896830745,-20.81677391528787
5.763027693040711,3.6011742618300406,1.0234116197522536,-1.8364097523486018,6.849244255632659,-21.518219612995072
5.799039435659012,3.6696667043863673,1.0050475222287676,-2.0515919484785528,7.568282238449997,-22.31158753533417
5.835736102702875,3.7453495267708674,0.9845316027439821,-2.2747078238318945,8.408861331043003,-23.21976837926804
5.873189597970584,3.8294381400812973,0.9617845245056632,-2.506905507624575,9.385629486951697,-24.268820252323415
5.911483979371397,3.9232944349508143,0.9367154694294174,-2.749593710147809,10.515666038006389,-25.48803700250276
5.950716923720905,4.028451095330878,0.9092195323279393,-3.0044740801728365,11.81827304063006,-26.909552298224312
5.991001434674214,4.146633825737179,0.8791747915262109,-3.27356960315508,13.314012332961171,-28.56692210997182
6.032467772931586,4.27977394906679,0.8464390954946601,-3.559238824254798,15.022209359150287,-30.491604072728176
6.075265512422254,4.429996042658293,0.8108467072521122,-3.86415486498208,16.95544154854729,-32.70527137578142
6.119565472848837,4.599550458143766,0.7722051586022913,-4.191207578739894,19.10825064452156,-35.20411420309056
6.165560977430275,4.790632964588982,0.7302930828148924,-4.5432487207708,21.435127261987358,-37.928218933150845
6.213467307076164,5.0049842372088555,0.6848605956071844,-4.922530910102308,23.80953228431203,-40.704517458078065
6.263517149448253,5.243079560051976,0.6356352865061613,-5.329576084683089,25.952474438850118,-43.14723966511351
6.315947945048773,5.502604304440477,0.5823395256593304,-5.761048481334225,27.322221833387793,-44.50404470584796
6.370973988093178,5.775826522774355,0.5247290408459881,-6.206088928392704,26.98663929433596,-43.47785084789865
6.428732253320922,6.045692915717714,0.4626681515620611,-6.640867436871691,23.599948670387924,-38.19489896950327
6.489189182478099,6.281692402421593,0.3962594771933442,-7.022816426566724,15.794675353192057,-26.75439671314101
6.552006106502315,6.439639155953514,0.32603131292767695,-7.290360393698134,3.3234734613603565,-8.828004310960607
6.61640249806185,6.472873890567118,0.2531277089906956,-7.37864043680774,-11.587344603846162,12.447967076119484
6.681131236967522,6.357000444528656,0.1793413046226182,-7.254160766046545,-24.69507798383856,31.123159528452216
6.744701241412808,6.11004966469027,0.10679969696215273,-6.942929170762023,-32.70489139931513,42.590758289143615
6.805801738059711,5.783000750697119,0.0373704052545325,-6.517021587870587,-35.37201024067009,46.52125875088526
6.863631745566682,5.429280648290418,-0.02779981062417336,-6.051809000361734,-34.46845834504071,45.403059169103614
6.917924552049586,5.084596064840011,-0.08831790062779071,-5.597778408670698,-31.87485005128285,41.870208939014496
6.9687705126979855,4.765847564327182,-0.1442956847144977,-5.179076319280553,-28.789643175398805,37.60019116546129
7.016428988341257,4.477951132573194,-0.19608644790730323,-4.803074407625941,-25.79714283558361,33.41170041594422
7.061208499666989,4.219979704217359,-0.24411719198356263,-4.468957403466498,-23.123249198810026,29.622827058730657
7.103408296709163,3.988747212229258,-0.28880676601822763,-4.172729132879192,-20.822116820435475,26.311798204284553
7.143295768831456,3.7805260440249033,-0.33053405734701957,-3.909611150836346,-18.87645908652174,23.456919044379255
7.181101029271705,3.5917614531596858,-0.369630168855383,-3.6750419603925533,-17.244604781242593,21.002203430943283
7.217018643803302,3.41931540534726,-0.4063805884593086,-3.4650199260831203,-15.88066728180399,18.885533832952483
7.251211797856774,3.26050873252922,-0.44103078772013976,-3.2761645877535956,-14.742301505180896,17.049537882726373
7.283816885182066,3.113085717477411,-0.4737924335976757,-3.105669208926332,-13.793051468097548,15.444934050236215
7.31494774235684,2.9751552027964356,-0.5048491256869391,-2.95121986842397,-13.00248702919149,14.030796298023859
7.344699294384805,2.845130332504521,-0.5343613243711788,-2.8109119054437315,-12.34553903050436,12.77369671566979
7.37315059770985,2.7216749421994773,-0.5624704434256161,-2.6831749382870336,-11.801629915684924,11.646555691837182
7.400367347131845,2.603658643042628,-0.5893021928084865,-2.566709381368662,-11.35383620678375,10.62752788444849
7.426403933562272,2.49012028097479,-0.6149692866221731,-2.460434102524177,-10.988162782898423,9.699034883261083
7.451305136372019,2.380238653145806,-0.6395736276474149,-2.3634437536915662,-10.692943793196498,8.846964965005524
7.475107522903477,2.273309215213841,-0.6632080651843305,-2.274974104041511,-10.458360208112952,8.060025802344018
7.497840615055615,2.1687256131327115,-0.6859578062247457,-2.1943738460180704,-10.276056504981145,7.3292255354117115
7.519527871186942,2.0659650480829,-0.7079015446849264,-2.121081590663953,-10.138838537116257,6.64745701799221
7.540187521667772,1.9645766627117376,-0.7291123605915659,-2.0546070204840308,-10.040436730309079,6.009163045819039
7.559833288294889,1.8641722954086468,-0.7496584307964063,-1.9945153900258403,-9.975321462633554,5.410064290903153
7.578475011248975,1.7644190807823112,-0.7696035846966647,-1.9404147471168087,-9.938560049284412,4.846935438821812
7.596119202056799,1.665033480289467,-0.7890077321678328,-1.8919453927285905,-9.925706921471814,4.317418295118633
7.612769536859694,1.565776411074749,-0.8079271860951187,-1.8487712097774043,-9.932720320015813,3.8198633265211375
7.628427300970441,1.4664492078745908,-0.8264148981928927,-1.810572576512193,-9.955900165541475,3.353193278203689
7.643091793049186,1.3668902062191761,-0.8445206239580146,-1.777040643730156,-9.991842787954013,2.9167842374145354
7.6567606951113785,1.266971778339636,-0.8622910303953162,-1.7478728013560108,-10.037408968588231,2.510360873825697
7.669430412894775,1.1665976886537537,-0.8797697584088763,-1.7227691926177537,-10.089702331213857,2.1339036440479138
7.681096389781312,1.0657006653416152,-0.8969974503350538,-1.7014301561772747,-10.146055564508726,1.78756655474185
7.691753396434728,0.964240109696528,-0.9140117518968266,-1.683554490629856,-10.204022310002848,1.4716046769083173
7.701395797531693,0.8621998865964995,-0.9308472968031252,-1.6688384438607728,-10.261372838078497,1.1863110256119391
7.710017796397658,0.7595861582157145,-0.9475356812417329,-1.6569753336046535,-10.316091884826541,0.931962690772602
7.717613657979815,0.6564252393674491,-0.9641054345777794,-1.6476557066969275,-10.366377252228979,0.7087762480737724
7.7241779103734896,0.5527614668451594,-0.9805819916447487,-1.6405679442161898,-10.410637995444688,0.516872514714774
7.7297055250419415,0.4486550868907125,-0.9969876710869106,-1.635399219069042,-10.447491241286382,0.35625066201035355
7.7341920759108485,0.34418017447784865,-1.013341663277601,-1.6318367124489386,-10.475756904562349,0.2267715748433518
7.737633877655627,0.23942260543222516,-1.0296600304020902,-1.6295689967005051,-10.494449793671311,0.12815017586040872
7.74002810370995,0.13447810749551203,-1.0459557203690952,-1.628287494941901,-10.502768820807768,0.059956229098512885
7.741372884784905,0.029450419287434346,-1.0622385953185143,-1.627687932650916,-10.500083250479388,0.021622921904113277
7.741667388977779,-0.07555041321735954,-1.0785154746450234,-1.6274717034318749,-10.485916126641989,0.012462312797165016
7.740911884845606,-0.18040957448377942,-1.094790191679342,-1.6273470803039032,-10.459925207062811,0.03168654161029622
7.7391077891007685,-0.2850088265544075,-1.111063662482381,-1.6270302148878002,-10.421881897301008,0.0784335393649396
7.736257700835225,-0.3892276455274176,-1.127333964631259,-1.6262458794941508,-10.371648810745917,0.15179585818684108
7.7323654243799504,-0.49294413363487677,-1.1435964234262006,-1.6247279209122825,-10.309156681861973,0.25085117168229365
7.727435983043602,-0.5960357004534965,-1.1598437026353234,-1.6222194091954596,-10.234381425479185,0.37469297538982266
7.721475626039067,-0.6983795147082884,-1.1760658967272781,-1.6184724794415615,-10.147322166022658,0.5224600434735154
7.714491830891983,-0.799852736368515,-1.1922506215216937,-1.6132478790068263,-10.047981059298905,0.6933632670850066
7.7064933035282985,-0.900332546961504,-1.208383100311762,-1.6063142463359763,-9.936345699706566,0.8867086050710927
7.697489978058684,-0.9996960039585696,-1.2244462427751217,-1.5974471602852653,-9.812374852356546,1.1019150112053808
7.687493018019098,-1.0978197524821351,-1.2404207143779744,-1.5864280101732116,-9.675988177712998,1.338526356253922
7.676514820494277,-1.1945796342592652,-1.2562849944797065,-1.5730427466106722,-9.52706053071392,1.5962165315388146
7.664569024151684,-1.2898502395664044,-1.2720154219458133,-1.5570805812952841,-9.365421320493928,1.8747870989858633
7.65167052175602,-1.3835044527713438,-1.2875862277587662,-1.5383327103054256,-9.190859312727019,2.1741570395194176
7.637835477228307,-1.475413045898614,-1.3029695548618205,-1.5165911399102314,-9.003133144094102,2.4943443488646526
7.623081346769321,-1.5654443773395552,-1.3181354662609228,-1.4916476964215848,-8.801987695133388,2.835439442233012
7.607426902995925,-1.653464254290889,-1.3330519432251386,-1.4632933019992547,-8.587176329400977,3.1975705645139754
7.590892260453017,-1.7393360175848989,-1.3476848762451312,-1.431317596354115,-8.358488847551966,3.580861669646306
7.573498900277167,-1.8229209060604186,-1.3619980522086723,-1.3955089796576519,-8.115784818019353,3.985383541141608
7.555269691216563,-1.9040787542406121,-1.3759531420052489,-1.3556551442462357,-7.859031725233572,4.411099282872168
7.536228903674157,-1.9826690714929478,-1.3895096934477111,-1.311544151417514,-7.5883471175691755,4.8578057186567785
7.516402212959227,-2.0585525426686395,-1.4026251349618863,-1.2629660942309462,-7.3040436399949265,5.325072697466878
7.495816687532541,-2.131592979068589,-1.415254795904196,-1.2097153672562775,-7.00667550611006,5.812182795118442
7.474500757741855,-2.2016597341296893,-1.4273519495767586,-1.1515935393050931,-6.697084614069162,6.31807440767903
7.452484160400558,-2.268630580270381,-1.4388678849698096,-1.0884127952283027,-6.3764441635681965,6.841291706847203
7.4297978545978545,-2.332395021906063,-1.4497520129220927,-1.0199998781598307,-6.046297319848972,7.379945318855731
7.406473904378794,-2.3928579951045528,-1.459952011703691,-0.9462004249712734,-5.708588239083929,7.931687828533857
7.382545324427749,-2.449943877495392,-1.4694140159534037,-0.8668835466859348,-5.365682669146668,8.493708223076979
7.358045885652795,-2.5036007041868586,-1.478082851420263,-0.781946464455165,-5.020375425915816,9.0627490995025
7.333009878610927,-2.5538044584460167,-1.4859023160648148,-0.69131897346014,-4.67588236975991,9.635149800770252
7.307471834026467,-2.6005632821436158,-1.4928155057994161,-0.5949674754524376,-4.3358151088005,10.20691757913049
7.281466201205031,-2.643921433231621,-1.4987651805539406,-0.49289829966113263,-4.004137550516809,10.773827414136292
7.255026986872715,-2.6839628087367893,-1.5036941635505519,-0.3851600255197697,-3.685104592859548,11.331549295261327
7.228187358785347,-2.720813854665385,-1.5075457638057495,-0.2718445325671564,-3.3831846302744975,11.875799737651816
7.200979220238693,-2.7546457009681298,-1.5102642091314211,-0.15308653519063825,-3.1029690450563305,12.402512219836396
7.173432763229012,-2.785675391418693,-1.5117950744833275,-0.029061412992274285,-2.8490733182450234,12.908019349672635
7.145576009314825,-2.8141661246011433,-1.5120856886132503,0.10001878050445208,-2.6260356614060165,13.389238138034752
7.117434348068813,-2.8404264812152036,-1.5110855008082058,0.2339111618847996,-2.4382199753259237,13.843849032846265
7.089030083256661,-2.864808680968463,-1.5087463891893578,0.3723496522132622,-2.2897303460636547,14.27045952579168
7.060381996446977,-2.8877059844290995,-1.505022892667225,0.515054247471179,-2.1843441111683686,14.668744280537572
7.031504936602686,-2.909549425540783,-1.4998723501925133,0.6617416902765547,-2.125469765193395,15.039555812029128
7.002409442347278,-2.930804123192717,-1.4932549332897478,0.812137248396846,-2.11613470688796,15.385002611430739
6.9731014011153505,-2.9519654702615967,-1.4851335608057794,0.9659872745111534,-2.159006224033249,15.708494993223203
6.943581746412734,-2.9735555325019294,-1.4754736880606678,1.1230722244433855,-2.256447387337565,16.014762507726335
6.913846191087715,-2.996120006375305,-1.464242965816234,1.2832198495206488,-2.4106079279302706,16.30985017347659
6.883884991023962,-3.020226085654608,-1.4514107673210275,1.4463183512554147,-2.6235489354411827,16.601103748718142
6.8536827301674155,-3.04646157500902,-1.4369475838084733,1.6123293887425962,-2.8973995174918046,16.897156584524353
6.823218114417325,-3.075435570183938,-1.4208242899210473,1.7813009545878398,-3.2345435126185254,17.207932206463227
6.792463758715486,-3.107781005310123,-1.4030112803751689,1.9533802766524722,-3.637834960881135,17.544677689676348
6.761385948662385,-3.1441593549189344,-1.3834774776086443,2.1288270535492355,-4.110842220856519,17.92004322303039
6.729944355113195,-3.1852677771274998,-1.3621892070731518,2.3080274857795393,-4.658122170700715,18.348223085581907
6.69809167734192,-3.231848998834507,-1.3391089322153564,2.4915097166353584,-5.285527473532323,18.845172516953106
6.665773187353575,-3.28470427356983,-1.3141938350490028,2.6799614418048896,-6.000550778855339,19.428913214002236
6.632926144617877,-3.3447097813583833,-1.2873942206309539,2.874250573944912,-6.812708809418634,20.119936228034987
6.599479046804293,-3.4128368694525695,-1.2586517148915048,3.075449936225262,-7.733964360778473,20.94170217662891
6.565350678109768,-3.490176513060354,-1.2278972155292522,3.284866957991551,-8.779171094736565,21.92121932549041
6.530448912979164,-3.5779682240077197,-1.1950485459493367,3.5040791512464553,-9.966496358966019,23.089638954082233
6.4946692307390865,-3.67763318759738,-1.160007754436872,3.7349755407872776,-11.317714784746691,24.482721991052404
6.457892898863113,-3.790810335444847,-1.1226579990289993,3.9798027606978015,-12.85813783810088,26.140856507220718
6.419984795508665,-3.919391713825856,-1.0828599714220213,4.241211325770009,-14.615688247762696,28.10795394999048
6.380790878370406,-4.065548596303483,-1.0404478581643213,4.522290865269914,-16.618119347308888,30.427850267197446
6.340135392407371,-4.231729789776572,-0.9952249495116221,4.826569367941889,-18.886382542346784,33.1354574062508
6.297818094509605,-4.42059361520004,-0.9469592558322032,5.1579239420043965,-21.420241623344978,36.23726223648387
6.253612158357605,-4.634796031433489,-0.8953800164121593,5.520296564369235,-24.168780250413285,39.670950217205956
6.20726419804327,-4.876483833937622,-0.8401770507684669,5.917006066541295,-26.972908844235064,43.22616136162434
6.158499359703894,-5.1462129223799735,-0.781006990103054,6.3492676801575385,-29.460823152145483,46.399671694540274
6.107037230480095,-5.440821153901428,-0.7175143133014785,6.813264397102941,-30.881262305779156,48.16344975685678
6.05262901894108,-5.74963377695922,-0.649381669330449,7.294898894671508,-29.91200325526718,46.69702629413775
5.995132681171488,-6.048753809511892,-0.576432680383734,7.761869157612886,-24.66740810805124,39.39559274417732
5.934645143076369,-6.295427890592404,-0.4988139888076051,8.155825085054659,-13.464360451831759,23.934109587145823
5.8716908641704455,-6.430071495110722,-0.4172557379570585,8.395166180926116,3.223828255211681,0.9859104125613402
5.807390149219338,-6.397833212558605,-0.33330407614779733,8.40502528505173,21.163187763478675,-23.555234939317206
5.743411817093752,-6.186201334923818,-0.24925382329728002,8.169472935658558,34.54326840759849,-41.64045072516713
5.681549803744514,-5.840768650847833,-0.16755909394069446,7.753068428406887,40.707839136266045,-49.64580041637109
5.623142117236036,-5.433690259485172,-0.09002840965662559,7.256610424243176,41.129185994942375,-49.678284828089936
5.568805214641184,-5.022398399535748,-0.01746230541419383,6.759827575962277,38.56626603036157,-45.59294130405734
5.518581230645827,-4.636735739232133,0.05013597034542894,6.303898162921703,35.01434807144533,-40.154754940353364
5.472213873253506,-4.28659225851768,0.11317495197464597,5.90235061351817,31.470368022687126,-34.73326144677824
5.429347950668329,-3.9718885782908084,0.17219845810982767,5.555017999050388,28.316231136193057,-29.84542434749802
5.389629064885421,-3.688726266928878,0.22774863810033155,5.2565637555754074,25.64457474318711,-25.61057632410946
5.352741802216132,-3.4322805194970067,0.28031427565608563,5.000457992334313,23.433200098616904,-21.992222072738585
5.318418997021162,-3.1979485185108376,0.33031885557942875,4.780535771606927,21.623337234890105,-18.905751557348182
5.286439511836053,-2.9817151461619367,0.378124213295498,4.5914782560334455,20.151153413622872,-16.261400575855795
5.2566223603744335,-2.780203612025708,0.42403899585583243,4.428864250274888,18.95889111745946,-13.979197476470585
5.228820324254176,-2.5906147008511136,0.4683276383585813,4.289072275510182,17.997714901079462,-11.992611465028682
5.202914177245665,-2.410637551840319,0.5112183611136831,4.169146160859895,17.22744331881203,-10.248018367375572
5.178807801727262,-2.238363118652199,0.5529098227222821,4.066665977186139,16.61529286305139,-8.70288265219783
5.15642417054074,-2.0722101900216847,0.5935764824941434,3.97963715066416,16.134464763793897,-7.3237724042515335
5.135702068640523,-1.9108655423837457,0.633372854000785,3.9063994266216446,15.76286839033692,-6.084590458094606
5.116593413216686,-1.7532368584803766,0.6724368482670015,3.8455535220406984,15.482059708560872,-4.9651135655167264
5.099061044631882,-1.598416261394768,0.7108923834874085,3.795902386385531,15.276392542767327,-3.949823791559872
5.083076882017934,-1.4456523359670945,0.7488514073512638,3.756404148469932,15.13235480479632,-3.0269832399780325
5.068620358658263,-1.2943287879191314,0.786415448835963,3.726134316070152,15.038057847742854,-2.187899023717278
5.055677070779072,-1.1439482094417028,0.8236767919966645,3.704255325832979,14.982850672329553,-1.4263312870484184
5.044237588684655,-0.9941197027184073,0.8607193452549944,3.689992012962495,14.957036154492933,-0.7380055667031866
5.03429639165747,-0.844549341173478,0.8976192653846193,3.682611957295463,14.951671570759975,-0.12019911798271266
5.025850898245736,-0.6950326254658783,0.934445384957574,3.681409966115636,14.95843972732296,0.42862176212341613
5.018900571991077,-0.5454482281926487,0.9712594846187304,3.6856961837368702,14.969579790898882,0.9091299612690024
5.01344608970915,-0.3957524302836599,1.008116446456099,3.69478748334956,14.977868545896975,1.3214422639654577
