th1 (rad),w1 (rad/s),th2 (rad),w2 (rad/s),a1 (rad/s^2),a2 (rad/s^2)
6.253680904323552,-1.3263143212309758,3.457600786559213,1.0928376280455803,3.229459377729201,6.679971668175961
6.240417761111242,-1.2940197274536838,3.468529162839669,1.1596373447273398,3.406092001972265,6.9282199428178215
6.227477563836706,-1.2599588074339612,3.4801255362869425,1.228919544155518,3.5546988642509407,7.146396608093911
6.2148779757623664,-1.2244118187914517,3.492414731728498,1.3003835102364572,3.6747442764475924,7.334752995912951
6.202633857574452,-1.1876643760269758,3.5054185668308624,1.3737310401955867,3.7659864017742537,7.493968877870008
6.190757213814182,-1.1500045120092333,3.5191558772328184,1.4486707289742868,3.8284630479169954,7.625120814468714
6.17925716869409,-1.1117198815300633,3.5336425845225614,1.524921937118974,3.862470833651701,7.729641795275736
6.168139969878789,-1.0730951731935463,3.5488918038937514,1.6022183550717313,3.868538808286948,7.809274245850517
6.157409018146853,-1.0344097851106768,3.5649139874444686,1.6803110975302364,3.8473977983043963,7.866018681627975
6.147064920295747,-0.9959358071276329,3.581717098419771,1.7589712843465162,3.7999468593150247,7.90208034435722
6.137105562224471,-0.9579363385344826,3.599306811263236,1.8379920877900884,3.7272182222860666,7.919816070200501
6.127526198839126,-0.9206641563116219,3.617686732141137,1.9171902484920933,3.6303420478973245,7.921683429497328
6.11831955727601,-0.8843607358326486,3.636858634626058,1.9964070827870666,3.510512155837789,7.910193874904754
6.109475949917683,-0.8492556142742708,3.6568227054539286,2.075509021536114,3.3689536955180164,7.8878712706029255
6.10098339377494,-0.8155660773190906,3.67757779566929,2.1543877342421434,3.2068934918072443,7.857216784924272
6.092827733001749,-0.7834971424010182,3.699121673011711,2.232959902091386,3.025533554401092,7.820680743887909
6.084992761577738,-0.7532418068570073,3.721451272032625,2.3111667095302653,2.8260280003136042,7.7806416901142095
6.077460343509168,-0.7249815268538712,3.7445629391279276,2.3889731264314076,2.6094634200625872,7.739392589945664
6.070210528240629,-0.6988868926532453,3.7684526703922416,2.466367052330864,2.376842529265533,7.699133893388336
6.063221659314097,-0.67511846736059,3.7931163409155504,2.5433583912647473,2.129070794011553,7.661972981827047
6.056470474640491,-0.6538277594204744,3.818549924828198,2.6199781210830175,1.8669456019265784,7.629929436610731
6.049932197046287,-0.6351583034012087,3.8447497060390283,2.6962774154491247,1.5911474694414507,7.604945522416264
6.043580614012275,-0.6192468287067943,3.8717124801935197,2.7723268706732873,1.302232725177686,7.5889012948218815
6.037388145725207,-0.6062245014550174,3.8994357489002525,2.8482158836215064,1.0006270839020284,7.5836338024287535
6.031325900710657,-0.5962182306159971,3.9279179077364677,2.924052221645794,0.6866195188564385,7.590959950664914
6.025363718404497,-0.5893520354274328,3.9571584299529254,2.999961821152443,0.36035584618646616,7.612702718291384
6.0194701980502225,-0.5857484769655681,3.9871580481644497,3.0760888483353566,0.021831448004263638,7.650720561018635
6.013612713280567,-0.5855301624855255,4.017918936647804,3.152596053945543,-0.32911742430715074,7.70693999331845
6.007757411655712,-0.5888213367285969,4.049444897187259,3.2296654538787277,-0.6928243108486456,7.783391504454806
6.001869198288426,-0.5957495798370834,4.081741551726046,3.307499368923276,-1.069805700596015,7.882249133566107
5.995911702490055,-0.6064476368430436,4.114816545415279,3.386321860258937,-1.4607772075713592,8.00587419655851
5.989847226121625,-0.6210554089187572,4.148679764017869,3.4663806022245223,-1.866673274210667,8.156863817885665
5.983636672032437,-0.6397221416608638,4.1833435700401145,3.547949240403379,-2.2886708834782885,8.338105061703457
5.977239450615829,-0.6626088504956467,4.218823062444148,3.6313302910204137,-2.7282177032125356,8.55283555939161
5.970613362110873,-0.689891027527772,4.255136365354352,3.71685864661433,-3.187064965644095,8.804711558520214
5.963714451835595,-0.7217616771842129,4.292304951820496,3.804905762199532,-3.667305149171839,9.097884209800217
5.956496835063753,-0.7584347286759313,4.330354009442491,3.8958846042975344,-4.171414089962898,9.437084555822524
5.948912487776994,-0.8001488695755603,4.369312855485466,3.9902554498557596,-4.702296360609175,9.827716904251204
5.940910999081238,-0.847171833181652,4.409215409984024,4.088532618898272,-5.263331366966991,10.275958745089191
5.9324392807494215,-0.899805146851322,4.450100736173007,4.191292206349164,-5.858415224319575,10.788862574992997
5.923441229280908,-0.9583892990945178,4.492013658236498,4.299180832099094,-6.491989399213237,11.374450021272386
5.913857336289963,-1.02330919308665,4.5350054665574895,4.4129253323118185,-7.1690402062717355,12.041779992070664
5.903624244359096,-1.0949995951493674,4.579134719880607,4.533343132232525,-7.895041629793517,12.800957647393963
5.8926742484076025,-1.1739500114473025,4.624468151202932,4.661352708706464,-8.675794430881737,13.663025463853954
5.88093474829313,-1.2607079557561198,4.671081678289997,4.797982963345004,-9.5170818580265,14.63963432970839
5.868327668735568,-1.355878774336385,4.719061507923446,4.944379306642088,-10.42400793944101,15.742319554737346
5.8547688809922045,-1.460118853730795,4.768505300989867,5.101802502189462,-11.399794694376135,16.98108482178712
5.840167692454896,-1.5741168006745563,4.819523326011762,5.271613350407333,-12.443669169073608,18.361797350707413
5.824426524448151,-1.6985534923652923,4.872239459515835,5.455231323914407,-13.547242437432569,19.88158004073581
5.807440989524498,-1.834025916739618,4.926791772754979,5.654047124321765,-14.68844353258876,21.520909953031296
5.789100730357101,-1.9809103520655056,4.983332243998197,5.869256223852077,-15.821627502090827,23.230498008752807
5.769291626836447,-2.139126627086414,5.042024806236717,6.101561203939605,-16.862067613787637,24.91041195670918
5.747900360565582,-2.3077473032242906,5.103040418276113,6.350665323506697,-17.663199980547425,26.379030847134686
5.72482288753334,-2.484379303029765,5.1665470715111805,6.6144556319780445,-17.987193611871486,27.33230826949792
5.699979094503042,-2.66425123914848,5.232691627830961,6.887778714673024,-17.47688648398619,27.303918975231984
5.673336582111557,-2.8390201039883416,5.301569414977692,7.160817904425343,-15.654564159378467,25.660744192920276
5.644946381071674,-2.9955657455821263,5.3731775940219455,7.417425346354546,-12.000389154120397,21.705914007463676
5.614990723615852,-3.1155696371233303,5.447351847485491,7.634484486429183,-6.174894392475512,14.978138700352009
5.583835027244619,-3.1773185810480853,5.523696692349783,7.784265873432703,1.6279164337274983,5.729575021289528
5.552061841434138,-3.1610394167108105,5.60153935108411,7.841561623645598,10.429102519457189,-4.735819968722068
5.520451447267029,-3.056748391516239,5.679954967320566,7.794203423958377,18.694967033244634,-14.38210607769423
5.489883963351867,-2.8697987211837925,5.75789700156015,7.650382363181435,25.073498626928142,-21.444973431797116
5.461185976140029,-2.619063734914511,5.834400825191964,7.435932628863464,29.028226592878422,-25.27903655559126
5.434995338790884,-2.328781468985727,5.908760151480599,7.183142263307551,30.83612893695598,-26.329804641778633
5.411707524101026,-2.020420179616167,5.980591574113674,6.919844216889764,31.14784366535624,-25.520763537306976
5.391503322304865,-1.7089417429626046,6.049790016282572,6.664636581516694,30.5944916344113,-23.721590162296184
5.374413904875238,-1.4029968266184916,6.116436382097739,6.427420679893732,29.628135596432564,-21.542625528609292
5.360383936609053,-1.106715470654166,6.180710588896677,6.2119944246076395,28.521021682285355,-19.344131880240795
5.349316781902512,-0.8215052538313123,6.242830533142753,6.018553105805232,27.416939893723438,-17.312128047522357
5.3411017293641985,-0.5473358548940779,6.303016064200805,5.845431825330008,26.381192109599827,-15.528809777331821
5.335628370815257,-0.2835239337980796,6.3614703824541055,5.69014372755669,25.43536547686768,-14.020312280645111
5.332793131477277,-0.02917027902940278,6.418371819729672,5.5499406047502395,24.57840589189429,-12.784939233303481
5.3325014286869825,0.21661377988954011,6.473871225777175,5.422091212417205,23.79850222298714,-11.808572807898873
5.334667566485878,0.4545988021194115,6.528092137901346,5.304005484338216,23.079502290976432,-11.072583728408679
5.339213554507072,0.6853938250291758,6.581132192744729,5.193279647054129,22.404267563757518,-10.557612241702412
5.346067492757364,0.909436500666751,6.63306498921527,5.087703524637105,21.75637602721405,-10.245165418379374
5.355161857764032,1.1270002609388914,6.683942024461641,4.985251870453311,21.12095818059319,-10.118102693789055
5.366431860373421,1.3382098427448232,6.733794543166174,4.8840708435154205,20.485090052584514,-10.160585738839432
5.379813958800869,1.5430607432706684,6.782635251601328,4.782464986127026,19.837966125740337,-10.357797811629384
5.395244566233576,1.7414404045280718,6.830459901462598,4.678887008010732,19.170965292964436,-10.695592643333136
5.412658970278857,1.9331500574577163,6.877248771542705,4.571931081577401,18.477663804411858,-11.160156009173177
5.431990470853434,2.117926695501835,6.922968082358479,4.4603295214856695,17.753817802921414,-11.737722463603388
5.4531697378084525,2.295464873531049,6.967571377573336,4.342952296849636,16.997322005613245,-12.414367979471821
5.476124386543763,2.465438093587182,7.011000900541832,4.2188086170549175,16.20814357802711,-13.175887202905807
5.500778767479635,2.627519529367453,7.053188986712382,4.087049745025859,15.38822754823308,-14.0077568813846
5.5270539627733095,2.781401804849784,7.09405948416264,3.946972176212013,14.541370141567839,-14.895182271082165
5.5548679808218075,2.9268155062654624,7.13352920592476,3.7980203535011916,13.673057969003017,-15.823219782854165
5.584136135884462,3.0635460859554926,7.171509409459772,3.63978815567265,12.790273324341431,-16.77696626148262
5.614771596744017,3.1914488191989068,7.2079072910164985,3.4720184930578237,11.901268445903161,-17.7418029334057
5.6466860849360065,3.3104615036579386,7.242627475947077,3.294600463723767,11.015314140547948,-18.703680191778417
5.679790699972586,3.4206146450634183,7.275573480584315,3.1075636618059828,10.142430418423876,-19.649428068205477
5.71399684642322,3.522038949247657,7.306649117202375,2.911069381123928,9.293108586503804,-20.567076538842873
5.7492172359156966,3.614970035112695,7.335759811013614,2.7053986157354992,8.478035492659368,-21.446169794686746
5.785366936266824,3.6997503900392887,7.362813797170969,2.490936917788632,7.707831232990389,-22.278059321914288
5.822364440167217,3.7768287023691927,7.387723166348856,2.268156324569489,6.9928115934377475,-23.05616211233414
5.8601327271909085,3.8467568183035703,7.410404729594551,2.0375947034461475,6.342785772972818,-23.77617253840373
5.898600295373944,3.9101846760332983,7.430780676629012,1.79983297806211,5.766898529836228,-24.436219297996477
5.937702142134277,3.9678536613316604,7.448779006409633,1.5554707850821452,5.273523824212616,-25.036962182736467
5.977380678747593,4.020588899573786,7.464333714260454,1.3051011632547804,4.870214335673239,-25.58162694864658
6.017586567743331,4.0692910429305185,7.477384725893002,1.0492848937683146,4.563707944094294,-26.075979818205486
6.058279478172636,4.114928122371461,7.487877574830685,0.7885250955862597,4.3599883652841696,-26.528245491121115
6.099428759396351,4.158528006024303,7.495762825786548,0.5232426406750486,4.264392489549973,-26.94897313885096
6.141014039456594,4.201171930919803,7.500995252193298,0.25375290928653893,4.281751191691382,-27.35085254451272
6.183025758765792,4.243989442836717,7.503532781286164,-0.019755616158588285,4.416542617578708,-27.7484756631943
6.225465653194159,4.288154869012503,7.5033352251245775,-0.2972403727905313,4.67302558881592,-28.158024890924295
6.268347201884284,4.334885124900662,7.500362821396672,-0.5788206216997742,5.055302922625534,-28.59684420391843
6.31169605313329,4.385438154126917,7.494574615179674,-0.8647890637389586,5.567235215996806,-29.082806422547886
6.3555504346745595,4.441110506286885,7.485926724542285,-1.1556171279644374,6.212076823089732,-29.633318209665784
6.399961539737428,4.503231274517783,7.4743705532626405,-1.4519503100610953,6.991624221958998,-30.26368628835695
6.4449938524826065,4.573147516737373,7.45985105016203,-1.7545871729446647,7.904532564058792,-30.984376329610143
6.49072532764998,4.6521928423779615,7.442305178432583,-2.064430936240766,8.94324078204192,-31.79639153182051
6.53724725607376,4.741625250198381,7.421660869070175,-2.382394851558971,10.088618168352793,-32.68353877899973
6.584663508575744,4.842511431881909,7.397836920554585,-2.7092302393489684,11.300997990915167,-33.59972701999525
6.633088622894563,4.955521411791061,7.370744618161096,-3.045227509548921,12.505797692277875,-34.44879938175202
6.682643837012474,5.08057938871384,7.340292343065607,-3.3897155033664412,13.571882880735794,-35.054361339080664
6.733449630899613,5.216298217521198,7.306395188031942,-3.740259116757248,14.282516901810535,-35.119464656270445
6.785612613074825,5.359123386539303,7.268992596864369,-4.091453763319953,14.305148793333453,-34.1850520639254
6.839203846940218,5.5021748744726375,7.22807805923117,-4.433304283959207,13.182303361325237,-31.618587315821667
6.8942255956849445,5.63399790808589,7.183745016391578,-4.749490157117424,10.393289297233839,-26.702802688653158
6.950565574765803,5.737930801058228,7.136250114820403,-5.016518184003956,5.554982675873464,-18.920208869645045
7.0079448827763855,5.793480627816963,7.086084932980364,-5.205720272700406,-1.2306160967537887,-8.443054043648319
7.065879689054555,5.781174466849425,7.03402773025336,-5.290150813136889,-9.084933195716303,3.45860239884086
7.1236914337230495,5.690325134892262,6.981126222121991,-5.2555647891484805,-16.512681792461557,14.647882410176663
7.180594685071972,5.525198316967646,6.928570574230506,-5.109085965046714,-22.11882036869703,23.13787592346284
7.235846668241648,5.304010113280676,6.877479714580039,-4.877707205812086,-25.30671422172224,28.079095549813747
7.288886769374455,5.050942971063454,6.828702642521918,-4.5969162503139485,-26.33854609458247,29.843958745071635
7.339396199085089,4.787557510117629,6.782733480018779,-4.298476662863232,-25.892232753224146,29.398906488853186
7.387271774186265,4.528635182585387,6.739748713390147,-4.0044875979747,-24.634288856028277,27.698346836427213
7.432558126012118,4.282292294025105,6.699703837410399,-3.727504129610428,-23.040132519247738,25.42814411476529
7.47538104895237,4.051890968832628,6.662428796114295,-3.473222688462775,-21.391516754170645,23.000062001334133
7.515899958640696,3.8379758012909213,6.627696569229667,-3.243222068449434,-19.83309225858742,20.630672651173608
7.554279716653605,3.639644878705047,6.5952643485451725,-3.0369153419376977,-18.427371779135463,18.41870979118766
7.590676165440655,3.4553711609136926,6.5648951951257954,-2.8527282440258213,-17.192499403619376,16.39851685420314
7.625229877049792,3.283446166877499,6.536367912685537,-2.68874307548379,-16.124686736357205,14.571991315264226
7.6580643387185665,3.122199299513927,6.5094804819307,-2.543023162331148,-15.210508920131156,12.92623566833494
7.6892863317137055,2.970094210312616,6.484050250307388,-2.4137608056477986,-14.433265716892222,11.442800135082749
7.718987273816832,2.8257615531436935,6.45991264225091,-2.299332804296971,-13.776082757151546,10.102278133254124
7.747244889348269,2.688000725572178,6.436919314207941,-2.1983100229644297,-13.22329339566081,8.886429691813984
7.774124896603991,2.55576779161557,6.414936213978296,-2.1094457260462898,-12.760944893617216,7.779030227636135
7.799682574520146,2.4281583426793976,6.393841756717833,-2.0316554237699282,-12.376877648962363,6.766085661409566
7.82396415794694,2.3043895661897738,6.373525202480134,-1.9639945671558325,-12.060610871240652,5.835750246702399
7.847008053608838,2.183783457477367,6.353885256808575,-1.9056370646888086,-11.8031532120393,4.978120128332356
7.868845888183611,2.0657519253569743,6.334828886161687,-1.855855863405485,-11.596796437321286,4.184989146933288
7.889503407437181,1.9497839609837615,6.316270327527632,-1.814005971936152,-11.4349188786705,3.449608110519665
7.909001247047019,1.8354347721970565,6.29813026780827,-1.7795098908309555,-11.311809436407874,2.7664653718710266
7.92735559476899,1.7223166778329777,6.280335168899961,-1.7518452371122453,-11.222515026105565,2.1310947569439094
7.944578761547319,1.610091527571922,6.262816716528838,-1.7305342895428062,-11.162710685655854,1.5399111811611819
7.960679676823038,1.4984644207153635,6.24551137363341,-1.7151351777311943,-11.12859004223951,0.9900717407312877
7.975664321030192,1.3871785202929683,6.228360021856098,-1.7052344603238814,-11.116773396450627,0.47935912262165076
7.989536106233121,1.276010786328462,6.211307677252859,-1.700440869097665,-11.124230748648097,0.0060840201569612425
8.002296214096406,1.164768478841981,6.194303268561882,-1.7003800288960953,-11.14821737789581,-0.4309965563681661
8.013943898884826,1.0532863050630228,6.1772994682729205,-1.7046899944597769,-11.186219938996572,-0.8327478421101228
8.024476761935455,0.941424105673057,6.160252568328323,-1.713017472880878,-11.23591139670367,-1.1997151464007536
8.033891002992185,0.8290649917060203,6.143122393599514,-1.7250146243448856,-11.295113436416305,-1.532172983553569
8.042181652909244,0.7161138573418573,6.125872247356065,-1.7403363541804213,-11.361765265879589,-1.8301672206587354
8.049342791482664,0.6024962046830614,6.10846888381426,-1.7586380263870087,-11.433897950809403,-2.0935516773451943
8.055367753529493,0.4881572251749674,6.09088250355039,-1.7795735431604607,-11.509613611624209,-2.322020370898422
8.060249325781243,0.3730610890587253,6.0730867681187855,-1.8027937468694448,-11.587068953042388,-2.515136391608229
8.06397993667183,0.2571903995283014,6.055058830650091,-1.8279451107855271,-11.664462708135838,-2.6723582120642506
8.066551840667113,0.14054577244694305,6.036779379542235,-1.8546686929061695,-11.740026658408507,-2.7930640752517353
8.067957298391583,0.023145505862857976,6.018232692613173,-1.8825993336586868,-11.812019946278204,-2.8765749658132886
8.068188753450212,-0.09497469359992407,5.999406699276586,-1.9113650833168196,-11.878726430489982,-2.922176544165913
8.067239006514212,-0.21376195790482388,5.980293048443418,-1.9405868487584788,-11.938454852905252,-2.9291403130653437
8.065101386935163,-0.33314650643387644,5.960887179955833,-1.9698782518891322,-11.989541591228042,-2.8967441906762765
8.061769921870825,-0.45304192234615687,5.9411883974369415,-1.998845693795895,-12.030355771041359,-2.8242925842128646
8.057239502647363,-0.5733454800565705,5.921199940498982,-2.0270886196380236,-12.059306506560333,-2.711135995413346
8.051506047846797,-0.6939385451221738,5.900929054302602,-2.054199979592157,-12.074852037213757,-2.556690145439038
8.044566662395574,-0.8146870654943114,5.880387054506681,-2.079766881046547,-12.075510530705246,-2.360454583969421
8.03641979174063,-0.9354421708013638,5.859589385696215,-2.103371426886241,-12.059872336156484,-2.1220307462795462
8.027065370032616,-1.0560408941629287,5.838555671427352,-2.1245917343490364,-12.026613495915983,-1.8411394425740584
8.016504961090988,-1.1763070291220885,5.817309754083862,-2.143003128774777,-11.974510362865907,-1.5176378035452818
8.004741890799767,-1.2960521327507475,5.795879722796114,-2.15817950681023,-11.902455221020404,-1.1515357603385175
7.9917813694722595,-1.4150766849609515,5.7742979277280115,-2.169694864413615,-11.809472868164614,-0.7430121983890565
7.97763060262265,-1.5331714136425976,5.7526009790838755,-2.1771249863975055,-11.694738185117993,-0.2924309825748358
7.962298888486224,-1.6501187954937775,5.7308297292199,-2.180049296223254,-11.557594779350694,0.19964290729989717
7.945797700531286,-1.7656947432872845,5.709029236257668,-2.178052867150255,-11.397574841324067,0.7324268818043648
7.928140753098413,-1.8796704917005251,5.687248707586165,-2.1707285983322113,-11.214420378526656,1.3049036773993792
