th1 (rad),w1 (rad/s),th2 (rad),w2 (rad/s)
0.9219703192355927,-0.9221231709292811,2.010791813967562,0.1204458934716175
0.9127490875262999,-0.9845559816155808,2.011996272902278,0.0531850714286016
0.9029035277101441,-1.046368599534498,2.012528123616564,-0.01598662307837566
0.8924398417147992,-1.1074658652723406,2.0123682573857806,-0.08719678185330992
0.8813651830620758,-1.1677494107578479,2.0114962895672477,-0.16056752808814495
0.8696876889544973,-1.227117040191996,2.009890614286366,-0.23621488697710846
0.8574165185525774,-1.2854620820525628,2.0075284654165952,-0.3142481359501576
0.8445618977320518,-1.3426727176355822,2.0043859840570937,-0.3947691358294858
0.831135170555696,-1.3986312928552695,2.000438292698799,-0.47787164552451555
0.8171488576271433,-1.4532136213607132,1.9956595762435538,-0.5636406244937378
0.8026167214135361,-1.5062882884259567,1.9900231699986164,-0.652151529130789
0.7875538385292765,-1.557715966508039,1.9835016547073085,-0.7434696114838729
0.7719766788641961,-1.6073487548150287,1.9760669585924697,-0.8376492312885544
0.7559031913160458,-1.6550295566434532,1.9676904662795842,-0.9347331951684013
0.7393528957496113,-1.7005915095808908,1.9583431343279003,-1.034752140005855
0.7223469806538023,-1.7438574848616202,1.9479956129278417,-1.1377239808605393
0.7049084058051861,-1.7846396731343805,1.9366183731192363,-1.2436534473490826
0.6870620090738423,-1.8227392745612245,1.9241818386457454,-1.3525317360147822
0.66883461632823,-1.8579463114117813,1.9106565212855977,-1.4643363098017956
0.6502551532141122,-1.8900395810333874,1.8960131581875797,-1.5790308791812973
0.6313547574037783,-1.9187867661417928,1.8802228493957667,-1.6965656026112002
0.6121668897423604,-1.9439447176637226,1.8632571933696547,-1.816877546685135
0.5927274425657232,-1.9652599227495884,1.8450884179028033,-1.939891448366573
0.5730748433382273,-1.9824691669535583,1.8256895034191376,-2.065520822930038
0.5532501516686917,-1.995300394865829,1.8050342951898373,-2.193669461463832
0.5332971477200334,-2.0034737676354384,1.783097600575199,-2.324233360857138
0.5132624100436791,-2.006702908856959,1.7598552669666276,-2.457103126945344
0.4931953809551095,-2.0046963223068066,1.7352842356971743,-2.592166887790548
0.4731484177320414,-1.9971589562068885,1.709362566819269,-2.7293137488237433
0.4531768281699725,-1.9837938794047763,1.6820694293310314,-2.868437814682347
0.43333888937592474,-1.964304025607376,1.6533850511842079,-3.009442793947205
0.41369584911985097,-1.9383939533335344,1.6232906232447357,-3.1522471924698445
0.39431190958651563,-1.9057715626016414,1.5917681513200372,-3.2967900882983403
0.3752541939604992,-1.866149705979413,1.558800250437054,-3.4430374657917406
0.35659269690070505,-1.819247633479869,1.5243698757791366,-3.5909890672776568
0.33840022056590635,-1.764792220653988,1.48845998510636,-3.7406856955936862
0.3207522983593665,-1.7025189510128476,1.451053128150423,-3.8922168666478942
0.303727108849238,-1.6321726632328146,1.4121309594839442,-4.045728661990333
0.2874053822169098,-1.5535081386991207,1.3716736728640408,-4.201431557870335
0.2718703008299186,-1.4662907081015684,1.3296593572853375,-4.359607894156646
0.2572073937489029,-1.3702972155022237,1.286063278343771,-4.520618469671327
0.24350442159388067,-1.2653179225652689,1.2408570936470578,-4.684907472059445
0.230851242368228,-1.1511603068965195,1.1940080189264632,-4.853004511611871
0.21933963929926278,-1.0276562703822296,1.1454779738103444,-5.025521839938799
0.2090630765954405,-0.8946751198791172,1.0952227554109564,-5.203143762332111
0.2001163253966493,-0.7521459469432216,1.0431913177876353,-5.386603604169071
0.19259486592721708,-0.6000948926099366,0.9893252817459446,-5.576641105171613
0.18659391700111772,-0.4387054414393221,0.9335588706942285,-5.773929477264796
0.1822068625867245,-0.26841349848586127,0.8758195759215806,-5.978956303934781
0.17952272760186588,-0.0900534345754935,0.8160300128822328,-6.191836058727109
0.17862219325611095,0.09492443394760136,0.7541116522949617,-6.4120254556441925
0.17957143759558697,0.2841433539145657,0.6899913977385198,-6.6379100316871105
0.18241287113473262,0.4738843429240662,0.6236122974216487,-6.866240954772362
0.18715171456397328,0.6585867362073244,0.5549498878739251,-7.091444414631668
0.19373758192604654,0.8303668821328017,0.4840354437276084,-7.304931947569101
0.20204125074737456,0.9787998843189244,0.4109861242519174,-7.494732721326509
0.2118292495905638,1.09138374212991,0.3360387970386523,-7.646007503083304
0.22274308701186288,1.1551551583422035,0.2595787220078193,-7.7430788041157
0.2342946385952849,1.1595595789895534,0.1821479339666623,-7.773125648671286
0.24589023438518043,1.0997537039642333,0.10441667747994943,-7.730452188268108
0.2568877714248228,0.9786130530352973,0.027112155597268345,-7.619030706193008
0.26667390195517576,0.8060179141663028,-0.049078151464661726,-7.45144724970105
0.2747340810968388,0.5957370651962828,-0.12359262396167223,-7.244736889687492
0.2806914517488016,0.3617769366973186,-0.19603999285854715,-7.0156353423694835
0.2843092211157748,0.11590421938548953,-0.266196346282242,-6.7774878594614085
0.28546826330962966,-0.13322114023754988,-0.33397122487685604,-6.539317726951429
0.28413605190725416,-0.37980886633113364,-0.39936440214637037,-6.306317825967751
0.28033796324394283,-0.6202611998593901,-0.46242758040604787,-6.080862442875672
0.27413535124534893,-0.8524765443150323,-0.5232362048348046,-5.863490442350061
0.2656105858021986,-1.0752996341840775,-0.5818711092583052,-5.653659455160045
0.2548575894603578,-1.28814033241259,-0.6384077038099056,-5.4502587304770085
0.2419761861362319,-1.4907295685391533,-0.6929102911146757,-5.2519334070146835
0.22706889045084036,-1.6829721465631473,-0.7454296251848226,-5.057279414651763
0.2102391689852089,-1.86486306506675,-0.7960024193313402,-4.864955622902803
0.1915905383345414,-2.0364435937984204,-0.8446519755603682,-4.6737451701117525
0.1712261023965572,-2.1977813516342612,-0.8913894272614857,-4.482586316691566
0.14924828888021457,-2.348964308079092,-0.9362152904284013,-4.290585224767417
0.12575864579942364,-2.4901023771751807,-0.9791211426760755,-4.097018001619797
0.10085762202767183,-2.6213326615196952,-1.0200913226922734,-3.901326251825924
0.07464429541247487,-2.7428259078394337,-1.0591045852105327,-3.703108556893786
0.04721603633408054,-2.854792684668206,-1.0961356707794705,-3.5021092590928533
0.018668109487398478,-2.957488400813744,-1.131156763370399,-3.298205357863241
-0.010906774520738963,-3.051216682633772,-1.1641388169490314,-3.0913920386891682
-0.04141894134707669,-3.1363308978620723,-1.1950527373359232,-2.8817672258987153
-0.0727822503256974,-3.213233800053364,-1.2238704095949104,-2.6695155089485247
-0.10491458832623105,-3.28237539694746,-1.2505655646843956,-2.454891791517645
-0.13773834229570564,-3.3442492328174764,-1.2751144825995722,-2.2382050274018903
-0.1711808346238804,-3.399387327222432,-1.297496532873591,-2.019802421722879
-0.2051747078961047,-3.448354035084868,-1.3176945570908198,-1.8000544831851715
-0.2396582482469534,-3.491739088463015,-1.3356951019226715,-1.5793413113891792
-0.27457563913158356,-3.5301500507461934,-1.3514885150365632,-1.35804049488257
-0.3098771396390455,-3.5642043607475653,-1.365068919985389,-1.136516985992979
-0.34551918324652114,-3.5945210683020825,-1.3764340898453187,-0.9151153149876509
-0.38146439392954196,-3.6217122648522526,-1.3855852429951951,-0.6941545177798142
-0.41768151657806446,-3.6463740916121217,-1.3925267881729932,-0.4739261882991107
-0.45414525749418566,-3.6690770628030105,-1.3972660500559844,-0.2546961391842901
-0.4908360281222158,-3.690355270125436,-1.3998130114478273,-0.03671027236364116
-0.5277395808234702,-3.7106938356331693,-1.4001801141714638,0.17979456865141266
-0.5648465191798019,-3.730513755412676,-1.3983821684849498,0.39457377009425276
-0.6021516567339287,-3.75015303671893,-1.3944364307840074,0.6073508870387119
-0.639653187101118,-3.7698428062927016,-1.3883629219136202,0.817784837572992
-0.677351615164045,-3.7896769237369208,-1.3801850735378902,1.0254266819973519
-0.7152483844014141,-3.809573701100246,-1.3699308067179168,1.2296644443132023
-0.7533441214124166,-3.8292288399945638,-1.3576341622747847,1.429655172837806
-0.7916364098123623,-3.848060025314191,-1.3433376105464068,1.6242453146275073
-0.8301170100655042,-3.865146293129424,-1.3270951574001317,1.8118842386820062
-0.8687684729967985,-3.879169930043201,-1.3089763150133116,1.9905422303596743
-0.9075601722972305,-3.8883756352321,-1.2890708927097148,2.157653993295424
-0.9464439286495515,-3.8905703909233265,-1.2674943527767606,2.31012076192298
-0.9853496325587848,-3.8831951788988404,-1.2443931451575307,2.4444146145806394
-1.0241815843477733,-3.863500248998168,-1.2199489990117243,2.5568288706963265
-1.062816586837755,-3.8288402136312456,-1.194380710304761,2.6438960984357776
-1.1011049889740674,-3.7770671342135897,-1.1679417493204032,2.7029410191257073
-1.1388756603162034,-3.7069446239216,-1.140912339129146,2.7326577376015493
-1.1759451065554194,-3.618460116822194,-1.1135857617531306,2.7335366651533985
-1.2121297077236413,-3.5129143910650162,-1.0862503951015967,2.7079706763413047
-1.2472588516342915,-3.3927365525912236,-1.0591706883381837,2.6599693788420864
-1.2811862171602038,-3.2610797640452485,-1.0325709945497628,2.5945628668881637
-1.3137970148006561,-3.12133336082301,-1.006625365880881,2.517090018991429
-1.3450103484088862,-2.976694336910049,-0.9814544656909667,2.4325758576879215
-1.3747772917779868,-2.8298849457691646,-0.9571287071140875,2.3453215597684234
-1.4030761412356785,-2.6830303106588778,-0.9336754915164033,2.258726402947133
-1.4299064443422673,-2.5376604160229705,-0.911088227486932,2.1752901077073528
-1.455283048502497,-2.3947851192496743,-0.8893353264098585,2.0967215237092756
-1.4792308996949937,-2.254998128722967,-0.8683681111727657,2.024090059774133
-1.5017808809822233,-2.1185814063403514,-0.8481272105750244,1.9579784885304294
-1.5229666950456269,-1.9855956926986031,-0.8285474256897201,1.8986162178472528
-1.542822651972613,-1.8559524917217143,-0.8095612635112476,1.8459860245748105
-1.5613821768898302,-1.7294680973197587,-0.7911014032654995,1.799904863064254
-1.5786768578630277,-1.6059024670858586,-0.773102354634857,1.7600826334485735
-1.5947358825338862,-1.4849862656339825,-0.7555015283003712,1.72616360358313
-1.609585745190226,-1.366439120194533,-0.7382398922645399,1.6977548236228537
-1.6232501363921714,-1.2499815722802825,-0.7212623440283114,1.6744451005252754
-1.6357499521149743,-1.1353426261603965,-0.7045178930230586,1.6558172807758864
-1.6471033783765783,-1.022264290614287,-0.6879597202152997,1.6414558752591832
-1.6573260212827212,-0.910504111854149,-0.6715451614627079,1.6309514921908719
-1.6664310624012626,-0.7998363962567356,-0.6552356465407992,1.6239031155485635
-1.67442942636383,-0.6900526039721275,-0.6389966153853136,1.6199189536616623
-1.6813299524035512,-0.5809612395784869,-0.622797425848697,1.6186163592262308
-1.6871395647993361,-0.47238745722239434,-0.6066112622564347,1.619621164871236
-1.6918634393715601,-0.3641725220927502,-0.5904150506077224,1.6225666691211675
-1.6955051645924877,-0.25617321785731423,-0.5741893839165106,1.6270924323051879
-1.6980668967710608,-0.1482612537559692,-0.5579184595934588,1.6328429905239341
-1.6995495093086206,-0.04032270035185134,-0.5415900296882195,1.6394665609471546
-1.6999527363121392,0.06774253404594023,-0.5251953640787479,1.646613788345541
-1.6992753109716798,0.1760211860118494,-0.5087292261952925,1.6539365672509492
-1.6975150991115613,0.2845870865876515,-0.492189860522783,1.6610869639616357
-1.6946692282456848,0.3935015914957749,-0.4755789908831667,1.667716255987744
-1.690734212330727,0.5028140098050405,-0.45890182832328924,1.6734741022138528
-1.6857060722326767,0.6125620519122713,-0.44216708730115073,1.6780078541462857
-1.679580451713554,0.7227723199733178,-0.4253870087596879,1.680962016465933
-1.6723527285138209,0.8334608656266176,-0.40857738859502857,1.6819778632438613
-1.6640181198575548,0.9446338411235009,-0.39175760996258996,1.6806932142338946
-1.6545717814463197,1.0562882708738868,-0.374950677820251,1.6767423733506839
-1.6440088987375807,1.1684129709556244,-0.3581832540867442,1.6697562285481213
-1.6323247690280245,1.2809896443178987,-0.341485691801263,1.6593625086498007
-1.6195148725848454,1.3939941792191917,-0.32489206671476495,1.6451861881062944
-1.6055749307926535,1.5073981778622003,-0.308440204833702,1.6268500250545703
-1.5905009490140314,1.6211707412136604,-0.2921717045831563,1.6039752113622308
-1.5742892416018948,1.73528053463412,-0.276131952469534,1.5761821055266083
-1.5569364362555536,1.8496981572223066,-0.2603701314142679,1.5430910103921458
-1.5384394546833304,1.9643988357596383,-0.24493922131034646,1.5043229477398545
-1.5187954663257341,2.079365461910618,-0.2298959918329479,1.4595003710618313
-1.498001811706628,2.1945919890069736,-0.2153009881223296,1.4082477465359593
-1.4760558918165583,2.3100872024408217,-0.20121851065697,1.3501919207675814
-1.4529550197921501,2.4258788755198544,-0.18771659144929417,1.2849621828498126
-1.4286962310369515,2.5420183206296034,-0.17486696962079604,1.2121899185425133
-1.4032760478306554,2.658585343577022,-0.1627450704353709,1.1315077470705648
-1.3766901943948853,2.775693606618808,-0.15142999296466525,1.0425480279258783
-1.3489332583286973,2.893496401917653,-0.14100451268540648,0.9449406287020181
-1.3199982943095208,3.0121928300868226,-0.1315551063983863,0.8383098593250085
-1.2898763660086525,3.132034364569243,-0.12317200780513622,0.7222705091896806
-1.2585560223629602,3.2533317557437944,-0.11594930271323942,0.596422981368499
-1.2260227048055221,3.376462178492366,-0.10998507289955442,0.4603476178004482
-1.1922580830205984,3.501876436170944,-0.10538159672154994,0.31359847639597205
-1.157239318658889,3.6301058738326684,-0.10224561195759022,0.15569709629601966
-1.1209382599205622,3.761768377021739,-0.10068864099463001,-0.013872762175132253
-1.0833205761503448,3.89757236253913,-0.10082736861638134,-0.19566768265204712
-1.0443448525249535,4.0383168797011155,-0.1027840454429018,-0.39028155092522554
-1.0039616837279424,4.184884635928167,-0.10668686095215406,-0.5983320661087809
-0.9621128373686607,4.3382226293152275,-0.11267018161324187,-0.8204288690851532
-0.9187306110755085,4.499301651849629,-0.1208744703040934,-1.0571104505132747
-0.8737375945570122,4.6690405907168975,-0.13144557480922614,-1.3087294289371092
-0.8270471886498432,4.84817350270516,-0.14453286909859722,-1.5752546113076598
-0.7785654536227916,5.037026559362446,-0.16028541521167383,-1.855943123006953
-0.7281951880291672,5.235159641401371,-0.17884484644174337,-2.1488190893872217
-0.6758435916151535,5.440820366965091,-0.20033303733561558,-2.4498867140007707
-0.6214353879455026,5.650175849195679,-0.2248319044756233,-2.7520326535128
-0.5649336294535457,5.856371275467438,-0.25235223101075127,-3.0436948524732745
-0.5063699166988713,6.048679576743191,-0.282789179535484,-3.3076845939200883
-0.4458831209314394,6.212387570155371,-0.3158660254746849,-3.521093027147718
-0.3837592452298857,6.330432665031962,-0.3510769557461621,-3.6577363170996575
-0.3204549185795661,6.38753043260961,-0.3876543189171587,-3.6941953774992577
-0.25657961425347,6.3758614808929295,-0.4245962726921513,-3.6181099247227504
-0.19282099944454067,6.299032195946808,-0.4607773719393788,-3.434010557659474
-0.1298306774850726,6.171020274397208,-0.4951174775159735,-3.161940233348731
-0.06812047474110053,6.010602200594878,-0.5267368798494608,-2.8295094635941562
-0.008014452735151743,5.835275400854191,-0.5550319744854024,-2.4630952268219795
0.05033830127339017,5.657903616000563,-0.5796629267536222,-2.082851764528614
0.10691733743339579,5.48628527497912,-0.6004914443989083,-1.701904245202623
0.16178019018318698,5.324229523346449,-0.6175104868509346,-1.3277538915912153
0.21502248541665148,5.172910624514654,-0.6307880257668467,-0.9641424995102876
0.266751591661798,5.031956671066372,-0.6404294507619496,-0.6125803545061488
0.31707115837246175,4.900177973707893,-0.6465552543070111,-0.2733817545434173
0.36607293810954067,4.776007960659808,-0.6492890718524453,0.0537023476571426
0.41383301771613873,4.657753504582427,-0.6487520483758739,0.36912438540061515
0.460410552761963,4.543730259029393,-0.6450608045218678,0.673348869038854
0.505847855352257,4.432332514914865,-0.6383273158314792,0.9667604197461306
0.5501711805014056,4.322067381290405,-0.6286597116340179,1.2496286226297222
0.5933918543143096,4.211570344797076,-0.6161634254077207,1.5221046604245014
0.6355075577622804,4.099611579836192,-0.6009423788034757,1.7842352648844497
0.6765036735606423,3.985097922326258,-0.5831000261546312,2.0359856668761886
0.7163546527839049,3.8670728911624304,-0.5627401694858694,2.2772667136054134
0.7550253816955291,3.744715738234072,-0.5399675023498153,2.507963275579963
0.7924725390778699,3.617339755177062,-0.5148878695940157,2.72796215843836
0.8286459366296405,3.484389689535552,-0.4876082480096321,2.9371783558088667
0.863489833524996,3.34543796827312,-0.4582364644515434,3.135578851432726
0.8969442132077272,3.200179402243592,-0.4268806759372162,3.3232034263473027
0.9289460072301632,3.0484240976126737,-0.39364864167374314,3.5001821173034364
0.95943024820629,2.890088395822949,-0.3586468205007088,3.6667491397235814
0.9883311321645195,2.7251837802585293,-0.321979329103473,3.8232532467639606
1.0155829699671048,2.5538038095760163,-0.28374679663583335,3.970164648372864
1.041121008062865,2.3761092533070394,-0.2440451501521047,4.1080787570404285
1.0648821005959355,2.1923117068429567,-0.20296436258170042,4.237717152998108
1.086805217664365,2.002656045770157,-0.16058719105171934,4.359926261778335
1.1068317781220665,1.8074021431901377,-0.11698792843393599,4.475674300837872
1.1249057995539677,1.6068063225040323,-0.07223118542555727,4.586047067361008
1.140973862779008,1.4011030628877537,-0.02637071475194719,4.692243091318434
1.1549848934078855,1.1904875345800954,0.020551716161237153,4.7955685451249614
1.1668897687536863,0.97509964737027,0.06850740161248678,4.8974320509050475
1.176640765227389,0.75501049706091,0.11748172212153726,4.999339104808964
1.184190870197998,0.5302124664715556,0.1674751131696269,5.102885156373017
1.1894929948627135,0.30061489556164334,0.2185039647333571,5.20974529413268
1.1924991438183299,0.06604835648716051,0.2706014176746839,5.321656762879284
1.1931596273832015,-0.17371758120058037,0.3238179853034767,5.440387810310577
1.1914224515711958,-0.41893525450850533,0.3782218634065825,5.5676820993959995
1.1872330990261106,-0.6698060933085304,0.43389868440054247,5.705161427165844
1.1805350380930253,-0.9263550993368476,0.4909502986722009,5.854160052583581
1.1712714870996568,-1.1882249838643806,0.5494918991980368,6.015451464311993
1.159389237261013,-1.4543534290988478,0.6096464138411567,6.188815208157212
1.1448457029700245,-1.7224943317553363,0.6715345659227289,6.372386283383646
1.1276207596524712,-1.988564549763976,0.7352584287565653,6.561755920712919
1.1077351141548315,-2.2458759478858084,0.8008759879636945,6.748897962006341
1.0852763546759734,-2.4844966834407463,0.8683649675837579,6.921247415656591
1.0604313878415659,-2.691288312306858,0.9375774417403239,7.061677037481119
1.0335185047184974,-2.851420557665073,1.008194212115135,7.150477901425151
1.0050042991418466,-2.9518769516935652,1.0796989911293866,7.170065617889424
0.975485529624911,-2.9861163557920603,1.1513996473082808,7.111289063606552
0.9456243660669904,-2.9572898867364303,1.2225125379443464,6.977795373296343
0.916051467199626,-2.8774792274042866,1.29229049167731,6.785001386127031
0.8872766749255832,-2.763286876514533,1.3601405055385802,6.554150255852709
0.8596438061604378,-2.6308147744854056,1.4256820080971073,6.305604912463627
0.8333356584155838,-2.492639216752727,1.4887380572217437,6.054892527471346
0.8084092662480565,-2.357144791822733,1.5492869824964572,5.811933522540207
0.7848378183298292,-2.229216653500809,1.6074063177218594,5.582060710173355
0.7625456517948211,-2.1112974804619578,1.663226924823593,5.36748055823501
0.7414326769902015,-2.00430685647976,1.716901730405943,5.168513291575144
