th1 (rad),w1 (rad/s),th2 (rad),w2 (rad/s)
5.894825269374964,2.333699305790969,4.226120886408012,-0.7537171472831827
5.918162262432873,2.37506357025684,4.21858371493518,-0.6088328825076976
5.941912898135442,2.4176935789258587,4.2124953861101035,-0.4611234214208895
5.9660898339247,2.4613388092282875,4.207884151895895,-0.3105026567302097
5.990703222016983,2.505729677268373,4.204779125328593,-0.1569203293392179
6.015760518789667,2.5505758964669334,4.203209922035201,-0.00036431935264927273
6.041266277754337,2.5955650857906103,4.203206278841675,0.15913714099068454
6.067221928612243,2.6403616870715423,4.204797650251582,0.32151342393724724
6.093625545482959,2.6846062515118025,4.208012784490954,0.4866497308185194
6.120471607998077,2.727915154083287,4.21287928179914,0.654385686862439
6.14775075953891,2.769880790795461,4.219423138667764,0.8245144086023484
6.175449567446865,2.810072307500929,4.227668282753788,0.9967821424089024
6.203550290521874,2.8480369000341246,4.237636104177877,1.1708885646546225
6.2320306595222155,2.88330171424227,4.249344989824423,1.3464878220035101
6.260863676664638,2.915376361294327,4.262809868044458,1.523190374784337
6.290017440277581,2.9437560491457764,4.278041771792302,1.7005656881642213
6.319455000769039,2.967925315909299,4.295047428673945,1.8781457959600925
6.349134253928131,2.9873623358635837,4.313828886633545,2.055429741629828
6.379007877286767,3.0015437545542114,4.334383184049844,2.2318888814822704
6.409023314832309,3.0099499963131886,4.356702072864667,2.4069730174511745
6.439122814795441,3.0120709756417807,4.3807718030391785,2.580117311531084
6.469243524551859,3.007412132987961,4.406572976154489,2.7507499212923316
6.499317645881739,2.9955007048676987,4.434080475367413,2.918300285308888
6.529272652930416,2.975892127122025,4.463263478220502,3.082207977825496
6.5590315742016365,2.9481764573676537,4.494085557998757,3.241932042142854
6.588513338775313,2.9119846875342534,4.526504878420186,3.396960700473777
6.617633185650656,2.8669947993625304,4.5604744854249235,3.5468213231256995
6.646303133644282,2.8129373951441696,4.595942698656181,3.6910905211524723
6.674432507595724,2.749600714010076,4.632853603867706,3.8294042044765084
6.701928514735825,2.6768348229057146,4.6711476459124714,3.9614674235943874
6.728696862964882,2.5945547541222145,4.710762320148415,4.087063790411481
6.754642410506104,2.5027423515714333,4.75163295805253,4.2060642567945274
6.779669834021819,2.401446589693253,4.7936936006204744,4.318435023175672
6.803684299918752,2.290782145196107,4.836877950852231,4.424244359213594
6.826592121370712,2.1709260347099133,4.881120394444367,4.5236681486594605
6.848301381717811,2.042112180891898,4.926357075930961,4.616994024202274
6.8687225035267305,1.904623833203425,4.972527016172984,4.704624035964045
6.887768741858765,1.7587838426023115,5.019573256532625,4.787075897633767
6.9053565802847885,1.6049428646972022,5.067444015508962,4.864982972517733
6.92140600893176,1.443465634922722,5.11609384523414,4.939093291473075
6.935840665280987,1.2747155130105896,5.165484778148871,5.010268027985209
6.948587820411094,1.0990375242595372,5.215587458428723,5.079479984637725
6.959578195653689,0.9167401257546751,5.2663822582751,5.147812762937726
6.968745596911236,0.7280758939793303,5.317860385904478,5.216461389520978
6.97602635585103,0.5332212678977937,5.370024999799687,5.286735252173841
6.981358568530007,0.33225539610818666,5.422892352321425,5.360064254646062
6.984681122491089,0.12513804369983503,5.476492994867886,5.438009121543392
6.985932502928088,-0.0883135578607562,5.53087308608332,5.522276753523959
6.98504936734948,-0.30844903645563126,5.586095853618559,5.6147414021687645
6.981964876984923,-0.5358103415066456,5.6422432676402465,5.717472103614615
6.976606773569857,-0.7711578211099464,5.699417988676393,5.8327660765694
6.968895195358758,-1.0154952761754747,5.757745649442087,5.963186248988792
6.9587402425970035,-1.2700900167537281,5.817377511931975,6.111597938316539
6.946039342429466,-1.536479275669615,5.87849349131514,6.281193448412636
6.93067454967277,-1.816445236545761,5.941305425799267,6.475481061917021
6.912510097307313,-2.111923549671863,6.006060236418437,6.698191214330101
6.891390861810594,-2.424777780376126,6.073042148561737,6.953008018499217
6.867143084006833,-2.756314202621503,6.1425722287467295,7.242953724413354
6.839579941980618,-3.1063159696516687,6.215001765990863,7.569119909489377
6.808516782284101,-3.471248241374281,6.290692965085756,7.928257561976608
6.773804299870358,-3.8412170256251845,6.369975540705522,8.30863130305335
6.735392129614106,-4.195611389713655,6.453061853736056,8.684002958688309
6.693436015716969,-4.498988500052299,6.539901883322939,9.007842480150565
6.648446130716446,-4.702492542478047,6.629980308124445,9.215024596034379
6.601421205291666,-4.758942194078126,6.722130554084789,9.242239053883019
6.553831783350884,-4.6505635769439815,6.814552944623619,9.06572918630743
6.507326147581445,-4.405539139323747,6.905210236486694,8.723576220201325
6.463270756188208,-4.080991713004708,6.992445998688707,8.292075751193355
6.422460839058161,-3.730611699543389,7.075366756200641,7.841719192006901
6.385154722062727,-3.388090206114445,7.15378394812071,7.415333770030954
6.351273820001582,-3.0688359116161226,7.227937285821019,7.031093818163461
6.320585460885421,-2.7773110006060517,7.298248224002654,6.692799601444653
6.292812350879361,-2.5127977722345203,7.3651762200171005,6.397734929992019
6.2676843731570155,-2.2726024338141073,7.4291535693170205,6.140926775152281
6.244958348818875,-2.0535607231686877,7.490562837068543,5.917080574086862
6.224422741587188,-1.8526616964349847,7.549733642809412,5.721334996921028
6.205896124622838,-1.6672625789446769,7.606946992778622,5.549484342969476
6.189223498833392,-1.495128260642627,7.662441836208316,5.397982410945861
6.174272216226965,-1.3344026159867886,7.716421660317775,5.263868451931735
6.160928190067097,-1.1835584766313039,7.769060344837093,5.144674584345024
6.149092605300784,-1.0413455722687825,7.820507090680543,5.03833780030779
6.138679149578096,-0.9067435788282743,7.870890468683621,4.943124106034913
6.129611713789814,-0.7789222044096082,7.92032170974397,4.857565960680516
6.121822491745718,-0.6572081472203015,7.968897369350775,4.780411811848165
6.115250410273514,-0.5410580276710171,8.016701487469257,4.710585854491058
6.109839829996804,-0.43003624181894606,8.063807346014167,4.6471561428710135
6.105539467578614,-0.3237967551130295,8.110278907442877,4.589309421523254
6.102301500027484,-0.2220680010955169,8.15617200165811,4.536331326959128
6.100080820016529,-0.12464020565188758,8.201535314927701,4.48759087642123
6.09883441796001,-0.03135459954629548,8.246411223691913,4.44252838133212
6.0985208719645465,0.057905896554208525,8.290836507505235,4.400646099062753
6.099099930930088,0.14322482953601,8.334842968495863,4.361501072578616
6.100532179225448,0.22465944614572908,8.378457979221649,4.32469971070787
6.1027787736869055,0.30224716531706547,8.421704976328728,4.289893739408155
6.105801245340076,0.3760114013973289,8.46460391372281,4.256777212827471
6.109561359354049,0.44596680584254866,8.507171685851084,4.225084317487499
6.114021027412474,0.5121239612236557,8.549422529025959,4.194587737925827
6.119142267024711,0.5744935362660462,8.591368406405218,4.165097381107918
6.124887202387371,0.6330898934176423,8.633019380216297,4.136459282570501
6.131218101321547,0.6879341305072798,8.674383973042001,4.108554541581426
6.13809744262662,0.7390565347998931,8.715469518457816,4.0812981569303455
6.145488007974619,0.7864984304456583,8.756282500027119,4.054637660017937
6.153352992279075,0.8303134080501227,8.796828876627298,4.02855146785044
6.161656126359576,0.8705679367644744,8.837114391305803,4.003046905055104
6.170361805727221,0.9073413736505974,8.877144860356355,3.978157870422114
6.179435219463727,0.9407254007589892,8.916926439060576,3.9539421488156816
6.1888424734713166,0.9708229360089399,8.956465860548734,3.9304783925443454
6.1985507028314055,0.9977465783188686,8.995770644474177,3.9078628164418547
6.2085281686145946,1.0216166594390936,9.034849272638596,3.8862056671592993
6.218744335208985,1.0425589838087816,9.07371132931019,3.865627538951618
6.2291699250470725,1.060702343043707,9.112367604699706,3.84625561533524
6.23977694847751,1.0761758932566097,9.150830160853058,3.828219918525357
6.250538707410076,1.0891064815327929,9.189112360038312,3.811649646979863
6.261429772225404,1.0996160030094808,9.22722885650811,3.796669676388222
6.272425932255499,1.107818862801941,9.265195553271994,3.783397291920935
6.283504120883518,1.1138196082390739,9.303029526191203,3.7719392104385934
6.294642316965909,1.117710787274911,9.340748918295589,3.76238894155522
6.305819424838658,1.1195710792113296,9.378372807711141,3.754824526746124
6.317015135630771,1.1194637345428,9.415921052978602,3.7493066866896694
6.328209772976199,1.1174353521789404,9.4534141198455,3.745877399117069
6.339384126497988,1.113515014683442,9.49087289383667,3.744558922762675
6.350519276644823,1.1077137954690628,9.528318483064297,3.745353277486212
6.361596414599513,1.100024645925806,9.565772015839158,3.748242186017432
6.372596661058772,1.090422664928704,9.603254437699333,3.7531874786538255
6.383500887708059,1.0788657476964383,9.64078631248587,3.7601319581461654
6.394289545185023,1.0652956051604572,9.678387632067333,3.7690007174457367
6.4049425012366275,1.049639138506663,9.71607763924179,3.7797028975271476
6.415438892621694,1.0318101461160527,9.753874668217062,3.7921338658267185
6.425756994082854,1.0117113316501647,9.791796006875328,3.8061777878079233
6.435874107399355,0.9892365725765917,9.829857784753408,3.8217105548573596
6.445766473125121,0.9642733982849253,9.868074890301981,3.838603021441142
6.45540920710797,0.9367056165799623,9.906460920516393,3.8567244937642537
6.4647762632737695,0.9064160174075035,9.945028165454035,3.875946401836525
6.473840423447845,0.8732890739448134,9.9837876294724,3.896146077775862
6.4825733141872925,0.8372135545023764,10.022749090250159,3.917210556363762
6.490945449732316,0.7980849548296277,10.061921195813797,3.939040310276125
6.498926299280613,0.7558076600548395,10.101311598916558,3.9615528328758662
6.506484375881161,0.7102967490503909,10.140927127245316,3.9846859865663022
6.513587343371666,0.6614793616251943,10.18077398711098,4.008401044735812
6.520202136987917,0.6092955603763325,10.220857997558339,4.032685370169061
6.52629509259168,0.5536986336841913,10.26118485126003,4.0575546919675025
6.531832078928522,0.4946548032733606,10.301760398179704,4.083054965674909
6.536778626961255,0.43214231777992695,10.342590947836452,4.109263826343358
6.541100050139055,0.36614993149056546,10.383683586099886,4.136291670461122
6.544761549453961,0.2966747834262203,10.425046502804497,4.164282428757842
6.547728297288223,0.2237197048793676,10.466689327092075,4.193414116815078
6.549965494337016,0.14728999219984762,10.508623468260225,4.223899273336752
6.551438394259015,0.06738968513069823,10.550862460993592,4.255985416460448
6.552112291110322,-0.01598261132150565,10.593422315158197,4.289955666666129
6.551952464997107,-0.10283833200271536,10.636321871824858,4.326129701207031
6.5509240816770795,-0.19320396906159362,10.67958316883693,4.364865220583555
6.548992041986463,-0.2871265082080058,10.723231821042765,4.406560123900085
6.546120776904384,-0.3846793175987085,10.767297422281766,4.451655608892833
6.542273983728396,-0.4859685566853608,10.811813978370694,4.500640436248345
6.537414298161543,-0.5911402121054568,10.856820382733178,4.554056629071213
6.531502896040488,-0.7003879138442535,10.90236094902389,4.612506919682755
6.524499016902046,-0.8139617376282746,10.948486018220718,4.676664309955865
6.516359399525763,-0.932178258701393,10.995252661320277,4.747284180235761
6.507037616938749,-1.055432186620665,11.042725503122636,4.825219466283534
6.496483295072543,-1.1842099768014496,11.09097769778547,4.911439521069528
6.484641195304528,-1.3191058730584004,11.140092092996166,5.007053379058038
6.471450136573944,-1.4608408658441046,11.190162626786746,5.113338220678875
6.456841727915503,-1.6102850101264272,11.241296008993535,5.231773840125858
6.440738877814239,-1.7684833468100865,11.293613747394794,5.364083737063867
6.423054044346138,-1.9366851356867936,11.347254584765432,5.512282850039051
6.40368719298927,-2.1163748850459223,11.402377413265823,5.678730457625774
6.38252344413881,-2.3093010588782032,11.45916471784208,5.866183454100262
6.3594304335500285,-2.517492989233139,11.517826552383083,6.07783819263715
6.3342555036576975,-2.7432457457013877,11.578604934309455,6.317334700765354
6.306823046200684,-2.9890313862382376,11.641778281317109,6.588668192774169
6.2769327323383015,-3.257253684910038,11.70766496324485,6.895896219655233
6.244360195489201,-3.549686288520123,11.776623925441402,7.24242317965769
6.208863332604,-3.8663010456121314,11.849048157237979,7.629458099777459
6.170200322147879,-4.203002944604596,11.925342738235754,8.05297273891551
6.128170292701833,-4.547660862715573,12.00587246562491,8.498297554861667
6.082693684074678,-4.874297397215336,12.090855441173526,8.932125073999554
6.033950710102524,-5.137773236714971,12.180176691913521,9.29508484652644
5.982572977735375,-5.277062212282091,12.273127540378786,9.50602253262403
5.929802355612554,-5.238643445361892,12.368187765705025,9.493880402896982
5.877415921158935,-5.01400539329978,12.463126569733996,9.248816011390796
5.8272758672259375,-4.652056249084613,12.555614729847903,8.838503155983702
5.7807553047350915,-4.225346000844705,12.64399976140774,8.361244116275792
5.7385018447266445,-3.790284296429666,12.727612202570498,7.891894781454187
5.700599001762348,-3.3760967327565106,12.80653115038504,7.467760512811677
5.666838034434783,-2.9927604283574163,12.881208755513155,7.100151579741741
5.636910430151209,-2.640648675442837,12.952210271310573,6.7877735836478506
5.610503943396781,-2.316406474946553,13.020088007147052,6.524699246964881
5.587339878647315,-2.0157267853833494,13.0853349996167,6.304032824303995
5.567182610793481,-1.7344719419437853,13.14837532785974,6.119321011009235
5.549837891374043,-1.4690473226705008,13.209568537969833,5.964968674213974
5.535147418147338,-1.2164694349409437,13.269218224711972,5.836261800478916
5.522982723797929,-0.9743226932079663,13.327580842716761,5.729257079707448
5.513239496865849,-0.7406849859652826,13.384873413513835,5.6406422241296506
5.505832647006197,-0.514052708302335,13.441279835755132,5.567605193968797
5.5006921199231735,-0.2932753331040647,13.49695588769482,5.507723759310041
5.497759366592133,-0.07750136780965619,13.55203312528792,5.458876615415141
5.496984352914036,0.1338654781335825,13.606621891442071,5.419173832134673
5.4983230076953715,0.34120197601638724,13.660813629763418,5.386903643294147
5.501735027455536,0.5446950179988947,13.714682666196358,5.360492760122054
5.507181977635525,0.7443670652939127,13.768287593797579,5.338477831095564
5.5146256482884635,0.9400989097964986,13.821672372108535,5.319486102950055
5.524026637386428,1.1316508996615455,13.874867233138037,5.302223675859237
5.535343146383044,1.3186834403861902,13.927889469896629,5.285469974998123
5.548529980786905,1.500777267171044,13.98074416964661,5.268077195538798
5.563537753458616,1.6774536954506143,14.033424941601996,5.248973544867991
5.580312290413122,1.848194800340345,14.085914677050676,5.2271691345183875
5.5987942384165255,2.0124632613414732,14.138186368395859,5.201763394753912
5.6189188710299405,2.169721446809433,14.190204002343398,5.171952923432798
5.640616085498035,2.3194492135860494,14.241923531577726,5.137038758134353
5.663810577633895,2.461159867445697,14.293293919159069,5.096432188562678
5.688422176308352,2.594413770248495,14.344258241044695,5.049658406883751
5.714366314010837,2.7188291831703553,14.394754825113532,4.996357518597517
5.74155460584254,2.834090087987494,14.444718400299507,4.936282688639533
5.769895506722415,2.93995091027571,14.494081227185903,4.869295453633669
5.799295015825172,3.0362382567532853,14.54277418172224,4.795358466735196
5.829657398392705,3.122849951557869,14.590727766389593,4.714526133904586
5.860885897908283,3.1997517944774563,14.637873027728638,4.6269337333780856
5.892883415853058,3.266972555717893,14.684142365062419,4.532785675495502
5.925553141410237,3.3245977616689197,14.729470221817374,4.4323435587016355
5.958799119026926,3.37276281638601,14.77379365740439,4.325914618026002
5.992526747190786,3.411645951884151,14.81705280358465,4.213841058765731
6.026643206709628,3.4414614182145455,14.859191214172307,4.096490637286803
6.061057820891773,3.4624532244334967,14.900156120545175,3.9742487096923016
6.095682353136108,3.4748896361845087,14.939898607642098,3.847511832352342
6.130431249497953,3.4790585349528875,14.978373725965621,3.716682877282752
6.165221834847482,3.4752636556588774,15.015540554738449,3.582167527491647
6.1999744714040705,3.4638216477946733,15.051362230013366,3.4443719463077738
6.234612687882017,3.4450598528358705,15.085805949476443,3.3037013708293346
6.269063286410376,3.419314657130962,15.118842963184736,3.1605593611174454
6.303256432981686,3.386930263369005,15.150448556795912,3.0153474402258107
6.337125735615376,3.348257722604959,15.18060203119817,2.8684648814308753
6.3706083128414255,3.30365407979259,15.209286680012479,2.720308433665774
6.403644853639351,3.2534815058293063,15.236489764349136,2.5712718198238984
6.436179668697644,3.1981063153497593,15.262202482547375,2.421744891247107
6.468160731851142,3.137897799232831,15.286419931459847,2.2721123717276477
6.49953970984347,3.073226831612155,15.309141055177124,2.122752172576298
6.5302719781595915,3.004464241021725,15.330368576902886,1.9740333040833629
6.560316620569809,2.9319789624191483,15.35010890994372,1.8263134458913701
6.589636410194001,2.8561360098200845,15.368372044402633,1.67993626783727
6.618197770292202,2.7772943271386605,15.385171407081007,1.5352286127328618
6.645970713563589,2.6958045869511715,15.400523693208335,1.3924976629797
6.6729287594331,2.6120070130850572,15.414448669838132,1.2520282141192407
6.69904882956395,2.526229303382357,15.426968951979324,1.1140801712346402
6.724311122597774,2.4387847242596967,15.43810975369167,0.9788863698704209
6.748698969840371,2.3499704396476813,15.447898617390374,0.8466508035072158
6.772198674236847,2.2600661246161704,15.456365125425446,0.7175473165182625
6.794799335483009,2.169332899664306,15.463540598590628,0.5917187968837061
6.816492664479652,2.078012606467853,15.469457786559465,0.46927687857413203
6.837272790544331,1.9863274309340146,15.474150555345206,0.3503021410114502
6.857136064853671,1.8944798656502018,15.477653576755321,0.2348447736003143
6.876080863510174,1.802652991942432,15.480002024491323,0.12292565782254522
6.894107393429598,1.7110110522499806,15.48123128106955,0.014537808217576498
6.911217503952098,1.619700276601133,15.481376659151724,-0.09035189322594726
6.92741450671811,1.5288499226467427,15.480473140219464,-0.19180073744333784
6.942703005944577,1.4385734868010243,15.478555132845031,-0.28988807072194356
6.957088740812587,1.3489700442489043,15.475656252137812,-0.3847130826614302
6.970578441255076,1.2601256775219367,15.471809121311198,-0.47639255713158335
6.983179698030295,1.1721149566012559,15.467045195739882,-0.565058636208347
6.994900847596307,1.0850024376614562,15.461394609377798,-0.6508566387826837
7.005750871972922,0.9988441522420032,15.45488604298997,-0.7339429670286228
7.0157393134953425,0.9136890634936291,15.447546613319684,-0.8144831256544299
7.024876204130279,0.829580470929428,15.43940178206314,-0.8926498711948457
7.033172008839573,0.7465573496122901,15.430475283351191,-0.9686215017713291
7.040637582335696,0.664655613791879,15.420789068333477,-1.0425802918901457
7.047284138473615,0.5839092985802394,15.410363265414576,-1.1147110720209374
7.053123231459417,0.5043516562856234,15.399216154694367,-1.1851999488924003
7.058166748022273,0.4260161665053806,15.387364155205443,-1.2542331596011846
7.062426909687328,0.3489374610333058,15.37482182360943,-1.3219960506685127
7.065916284297661,0.2731521661051085,15.361601863102745,-1.3886721719921908
7.068647805958712,0.19869966553892732,15.347715141382823,-1.4544424751188667
