th1 (rad),w1 (rad/s),th2 (rad),w2 (rad/s)
3.56178402347478,1.371726236099999,3.0354590865388573,-2.2240012625129024
3.57550128583578,1.4163705744311437,3.0132190739137283,-2.2635324166283213
3.5896649915800913,1.460486091940647,2.990583749747445,-2.302707103005962
3.6042698524994976,1.5039282876679334,2.9675566787173855,-2.3412989522098933
3.619309135376177,1.5465762239024716,2.9441436891952866,-2.379112100319125
3.6347748976152014,1.588333868222917,2.9203525681920954,-2.4159827832791008
3.6506582362974305,1.629130530176154,2.8961927403593046,-2.4517796601817547
3.666949541599192,1.6689204703740506,2.871674943757487,-2.4864029693136676
3.6836387463029325,1.707681807817491,2.84681091406435,-2.519782686238631
3.7007155643811074,1.7454148817582158,2.8216130872019636,-2.5518758940830493
3.7181697131986895,1.7821402369906199,2.796094328261133,-2.5826635920889744
3.735991115568596,1.8178963981844676,2.7702676923402434,-2.6121471622964814
3.7541700795504407,1.8527375833803994,2.7441462207172784,-2.6403446910200237
3.7726974553842445,1.8867314833979243,2.7177427738070783,-2.6672873076015136
3.7915647702182236,1.9199572068459843,2.6910699007310632,-2.6930156635593576
3.8107643422866833,1.9525034631953715,2.6641397440954697,-2.7175766355467084
3.830289376918637,1.9844670315323858,2.6369639777400025,-2.7410202989869026
3.8501340472339605,2.0159515417319662,2.6095537747501334,-2.763397187992833
3.87029356265128,2.0470665785592166,2.581919802870205,-2.784755832122907
3.890764228436872,2.077927107649921,2.554072244548976,-2.805140541695917
3.911543499513371,2.1086532149957757,2.5260208391320167,-2.824589400211229
3.932630031663329,2.139370147765706,2.4977749451299043,-2.843132414033789
3.954023733140986,2.170208643205533,2.4693436209895663,-2.860789764978036
3.975725819573041,2.2013055331154145,2.440735723339786,-2.877570109944537
3.9977388749041953,2.2328046131513495,2.411960022240341,-2.893468872747696
4.020066921035709,2.264857768070214,2.383025333512864,-2.9084664764725727
4.042715498716411,2.2976263451173065,2.3539406687481383,-2.9225264702805673
4.065691762167583,2.3312827669783998,2.3247154040453326,-2.935593513230511
4.0890045898373675,2.3660123717560957,2.2953594689130274,-2.947591190725914
4.112664713554929,2.402015458524794,2.2658835570057683,-2.958419658809097
4.136684868140176,2.439509500775464,2.2362993604176773,-2.9679531409582944
4.161079963147931,2.4787314631978354,2.2066198290080945,-2.9760373459864993
4.185867277779909,2.5199401153074623,2.1768594555482297,-2.98248694058962
4.211066678932984,2.563418172500108,2.1470345861423334,-2.9870833047661014
4.236700860657986,2.6094740036698547,2.1171637530946725,-2.9895729339494554
4.262795600694684,2.6584425155229843,2.087268023755178,-2.989667041842933
4.289380025849914,2.7106846474269983,2.057371353336749,-2.987043177479065
4.316486872324184,2.7665846787778023,2.027500921561958,-2.9813500120715144
4.344152719111962,2.826544261164096,1.997687421441243,-2.972216880720217
4.372418161723603,2.8909717521845457,1.9679652526340408,-2.9592701656029363
4.401327879245448,2.9602650872303,1.9383725509780114,-2.942159124828717
4.4309305301177515,3.034786169872887,1.9089509597297243,-2.9205941770903157
4.461278391816481,3.1148247565083604,1.879745017958821,-2.894400708291902
4.492426639381565,3.2005503222747196,1.850801010875902,-2.8635907863726784
4.5244321426043115,3.291951789592478,1.8221651030121753,-2.8284532157412476
4.557351660500236,3.3887676847486983,1.7938805708547627,-2.7896585249711587
4.591239337347724,3.4904135318817247,1.7659839856050512,-2.7483693358819803
4.626143472666541,3.5959188972151566,1.7385002922462314,-2.706338353148944
4.662102661638693,3.7038923415464775,1.7114369087147419,-2.665967518157811
4.699141585054158,3.8125362613451372,1.6847772335331637,-2.630296111417466
4.737266947667609,3.9197318384448763,1.658474272418989,-2.602887719434956
4.776464266052058,4.023204040630494,1.6324453952246394,-2.587600611858793
4.816696306458363,4.120757451158648,1.6065693891060515,-2.588254028936112
4.85790388096995,4.2105501026972725,1.5806868488166903,-2.608237921191568
4.900009381996923,4.2913535420001345,1.5546044696047747,-2.650142536644066
4.942922917416924,4.3627429343256185,1.528103044238334,-2.715492081006145
4.98655034676018,4.425175795253368,1.5009481234282727,-2.8046459941681356
5.030802104712714,4.479947482920954,1.4729016634865912,-2.916888152581653
5.075601579541923,4.529044134177014,1.4437327819607748,-3.050675779944475
5.1208920208836926,4.574936732349038,1.4132260241613301,-3.2039850400009033
5.166641388207183,4.620366685802146,1.3811861737613211,-3.3746799230840216
5.212845055065205,4.668164957185993,1.347439374530481,-3.5608437487438853
5.259526704637064,4.721130197067288,1.311830937043042,-3.7610384535875063
5.306738006607738,4.781974237595555,1.274220552507167,-3.9744841740131864
5.3545577489836935,4.853330955469634,1.2344757107670352,-4.201172475831093
5.40309105853839,4.937818717314155,1.1924639860087243,-4.441938273997872
5.452469245711532,5.038146584272642,1.1480446032687455,-4.698519468897051
5.502850711554259,5.157258284860738,1.101059408579775,-4.973632861860398
5.554423294402866,5.298513822157927,1.051323079961171,-5.271093213827233
5.607408432624446,5.465915116076745,0.9986121478228986,-5.5960015152538904
5.6620675837852135,5.664388167584758,0.9426521326703597,-5.9550291396469985
5.718711465461061,5.900137800145835,0.8831018412738898,-6.356824333157703
5.777712843462519,6.181086042059123,0.8195335979423127,-6.812557967762878
5.83952370388311,6.517373513450588,0.751408018264684,-7.3365811316558
5.904697439017616,6.921791863420742,0.678042206948126,-7.947014107982538
5.973915357651823,7.409673648230129,0.5985720658683006,-8.665614432003009
6.0480120941341236,7.996780158095933,0.5119159215482705,-9.514902544733959
6.127979895715083,8.691077595709393,0.4167668961009309,-10.506826706391703
6.214890671672177,9.468335710123924,0.31169862903701384,-11.608907158472567
6.309574028773416,10.215500016354586,0.19560955745228817,-12.665350624977505
6.411729028936962,10.65989570867901,0.06895605120251311,-13.298197656085218
6.518327986023753,10.469321659037956,-0.06402592535833906,-13.047042761232932
6.623021202614132,9.67617258559084,-0.1944963529706684,-11.959814387566269
6.719782928470041,8.707081228460607,-0.31409449684633106,-10.630047430809377
6.806853740754647,7.851308178377682,-0.4203949711544248,-9.456857673515353
6.885366822538424,7.163724141552948,-0.5149635478895783,-8.514316027578165
6.957004063953954,6.61838287247705,-0.6001067081653599,-7.765772865752211
7.023187892678724,6.180804343989653,-0.677764436822882,-7.163555723370105
7.08499593611862,5.823529211316601,-0.7493999940565831,-6.670085051709085
7.1432312282317865,5.526666411559229,-0.8161008445736739,-6.258443713046952
7.198497892347379,5.27597802645869,-0.8786852817041435,-5.909666974328444
7.251257672611966,5.061129781360239,-0.9377819514474279,-5.610319602757952
7.301868970425568,4.874441067077084,-0.9938851474750074,-5.350788878593731
7.350613381096339,4.7100402975974225,-1.0473930362609447,-5.124147484201432
7.397713784072313,4.5632987449750075,-1.098634511102959,-4.9254008767644235
7.443346771522063,4.430449868922624,-1.1478885198706033,-4.750980845858859
7.487651270211289,4.308335021783085,-1.1953983283291918,-4.598391203293794
7.53073462042912,4.194240667126638,-1.2413822403621297,-4.465941385247765
7.5726770271003865,4.085807963324458,-1.2860416542146074,-4.352522633934448
7.613535106733631,3.9810043885682043,-1.3295668805539518,-4.257394759637079
7.653345150619313,3.878149551863588,-1.3721408281503227,-4.179964248949269
7.692126646137949,3.7759833240807836,-1.4139404706398153,-4.1195505119062865
7.729886479378758,3.6737546410221573,-1.4551359757588782,-4.0751575457804865
7.766624025788979,3.5712972516827923,-1.4958875512166832,-4.045289590613005
7.802336998305807,3.4690515473317607,-1.5363404471228133,-4.027861968958053
7.837027513779125,3.3679982459028355,-1.5766190668123938,-4.020250287168417
7.870707496238153,3.269494398443257,-1.616821569684078,-4.019487041048563
7.903402440222585,3.1750381534870327,-1.6570164400945635,-4.0225645930480285
7.935152821757455,3.086018601870766,-1.697242086025044,-4.026762414262977
7.966013007776163,3.003513613312655,-1.7375097101676737,-4.029908675825687
7.99604814390929,2.9281781035995422,-1.7778087969259306,-4.030516533010949
8.025329924945286,2.86023040906252,-1.81811396225604,-4.027785182127403
8.053932229035912,2.7995143583768187,-1.8583918140773141,-4.021498069052008
8.08192737261968,2.7456010475982606,-1.8986067947678342,-4.011869134076304
8.109383383095661,2.6978970887024794,-1.9387254861085972,-3.9993834071514405
8.136362353982687,2.6557376635613466,-1.9787193201801117,-3.984661593575497
8.1629197306183,2.618455179725183,-2.0185659361158668,-3.968360689675767
8.189104282415553,2.5854232996992814,-2.0582495430126246,-3.951110206224164
8.214958515412546,2.5560807490533044,-2.0977606450748665,-3.9334773028769927
8.24051932290308,2.52994064681395,-2.1370954181036366,-3.9159524752741506
8.265818729371219,2.5065906016172637,-2.176254942856378,-3.8989482959051127
8.29088463538739,2.485687609959873,-2.215244425815429,-3.8828054990122447
8.315741511486989,2.466950529727424,-2.2540724808055512,-3.8678025190987015
8.340411016784262,2.450151862687768,-2.2927505059965383,-3.8541660668866675
8.36491253541114,2.43510982787111,-2.331292166665405,-3.8420813796943127
8.38926363368985,2.421681210208036,-2.369712980462348,-3.831701470932132
8.413480445791931,2.4097551625133313,-2.4080299951716695,-3.8231551186375183
8.437577997417064,2.399247963073091,-2.446261546358045,-3.8165535626610527
8.461570477047795,2.3900986377827707,-2.4844270819846552,-3.811995991369501
8.485471463425624,2.3822653109541023,-2.5225470418983504,-3.8095739379703004
8.509294116535164,2.3757221298508653,-2.5606427812780534,-3.8093747035034546
8.533051337833673,2.370456600124993,-2.598736528313088,-3.8114838958196557
8.556755903834922,2.3664671633244287,-2.6368513672712846,-3.81598713090041
8.580420575468167,2.3637608375073103,-2.6750112385802884,-3.8229708887481024
8.604058183843241,2.362350723568593,-2.7132409474677694,-3.8325224514395333
8.627681691078926,2.362253150071664,-2.751566171982165,-3.8447287744051097
8.651304222579643,2.3634841858577675,-2.790013459726216,-3.8596740512562735
8.67493906443822,2.366055191209354,-2.8286102002387787,-3.877435625590844
8.698599616350315,2.3699670056884403,-2.867384556494687,-3.8980777805290865
8.7222992864072,2.3752022890473414,-2.906365334299978,-3.921642804250569
8.746051309297673,2.3817154540949037,-2.9455817623424836,-3.9481386046714992
8.769868463838622,2.389419584967037,-2.9850631483891985,-3.9775220659292883
8.793762659688293,2.3981697728483797,-3.0248383690484912,-4.009677374243531
8.817744357416776,2.407742512002185,-3.0649351427909264,-4.044388812168231
8.841821782536798,2.417811317699697,-3.1053790309126086,-4.081308215885871
8.865999895713795,2.4279197376406647,-3.1461921130714674,-4.119918664821
8.890279093090202,2.4374546269398887,-3.1873912997196774,-4.159498302245715
8.914653639359601,2.4456250487766416,-3.2289862827421345,-4.199091619810468
8.939109889847368,2.451455238879743,-3.270977198940239,-4.237499793612207
8.963624442236165,2.4538028670957703,-3.313352196876361,-4.273305540595209
8.988162470907122,2.4514145099058617,-3.356085252282313,-4.304948931479867
9.01267661600618,2.443026152134861,-3.399134741597112,-4.330864956352082
9.03710687752753,2.427505408988308,-3.4424433911606327,-4.349678262500053
9.061381931617413,2.4040147166092827,-3.4859401737856333,-4.360426375806896
9.085422078783505,2.372157197495427,-3.529544437543702,-4.3627585296949976
9.10914365075846,2.3320601552865616,-3.573172022840652,-4.357048079826488
9.132464252311326,2.284364101440438,-3.616742503638917,-4.344374679138011
9.15530789332573,2.230115811229412,-3.6601862504302973,-4.326374922275482
9.177609051438024,2.170597140916645,-3.7034499996530523,-4.305006066027852
9.199315022847191,2.107139208324707,-3.746500060313331,-4.282291725440359
9.220386414930438,2.0409666896831538,-3.7893229775677346,-4.260111149109357
9.24079608182727,1.9730966246583528,-3.831924089058828,-4.240065067384589
9.260527048073854,1.9042938506285285,-3.874324739732674,-4.22342018320918
9.279569986580139,1.835070674293521,-3.9165589415647655,-4.211114477662811
9.297920693323075,1.7657136435118286,-3.9586700863413937,-4.203799249181364
9.315577829758194,1.6963222743124118,-4.000708078833207,-4.20189685019932
9.332541052501318,1.6268492882546617,-4.0427270473352,-4.2056597769887585
9.348809545383865,1.5571365624666655,-4.084783645105087,-4.215223282244124
9.364380911008531,1.4869444205505862,-4.1269358779275285,-4.230648428654805
9.379250355214037,1.415973969792513,-4.169242362214076,-4.251955343374033
9.393410094911962,1.3438832288994242,-4.211761915647816,-4.279147822217807
9.406848927200956,1.270298171468357,-4.254553393869994,-4.312230909294756
9.41955190891564,1.194819835703594,-4.297675702962941,-4.351223066169373
9.431500107272676,1.1170285171527767,-4.341187933624635,-4.396164317184463
9.442670392444203,1.0364858798567143,-4.38514957679648,-4.447121466468315
9.45303525124277,0.9527356476179507,-4.429620791461163,-4.504191201088829
9.462562607718949,0.8653033939671377,-4.474662703472052,-4.567501652331392
9.47121564165862,0.7736958429682085,-4.520337719995365,-4.637212788583769
9.478952600088302,0.6774000218217511,-4.566709847881203,-4.713515853913486
9.48572660030652,0.5758825661923652,-4.613845006420338,-4.796631937712465
9.491485425968444,0.4685894658196576,-4.661811325797462,-4.8868096541308725
9.49617132062664,0.35494654729553204,-4.710679422338771,-4.984321818017173
9.499720786099596,0.2343610195337394,-4.760522640518943,-5.089460921108982
9.502064396294934,0.10622445234747263,-4.811417249730033,-5.202533134726067
9.503126640818408,-0.030082383675233387,-4.863442581077293,-5.3238504919717204
9.502825816981655,-0.1751823216081841,-4.91668108599701,-5.453720834961577
9.501073993765573,-0.3296916845067128,-4.971218294346626,-5.59243505577532
9.497777076920507,-0.4942066312941638,-5.027142644904379,-5.740251122879563
9.492835010607564,-0.6692853030383595,-5.084545156133175,-5.897374382324995
9.48614215757718,-0.8554251179283308,-5.143518899956425,-6.063933676233604
9.477587906397897,-1.0530346441982346,-5.2041582367187615,-6.239952958395857
9.467057559955915,-1.262399672028324,-5.2665577663027205,-6.425318343610763
9.454433563235632,-1.4836434524834532,-5.3308109497388285,-6.61974094373455
9.439597128710798,-1.7166816207013966,-5.397008359176174,-6.822716457913666
9.422430312503783,-1.961173111585006,-5.46523552375531,-7.033483323260792
9.402818581387933,-2.216469425474703,-5.535570356987918,-7.250982290928467
9.380653887133187,-2.4815658775794103,-5.608080179897203,-7.4738215116997475
9.355838228357394,-2.755059860297276,-5.6828183950142,-7.700252452071309
9.32828762975442,-3.035122448663102,-5.7598209195349135,-7.92816296682799
9.297936405267789,-3.3194905539126967,-5.839102549203194,-8.155094267815779
9.264741499728663,-3.605486849113569,-5.920653491881351,-8.378287919550983
9.228686631237528,-3.8900734051628807,-6.004436371076861,-8.594766955874206
9.1897858971859,-4.169942061765286,-6.090384040635603,-8.80145153400038
9.148086476568247,-4.441640010622632,-6.1783985559756065,-8.995304397018
9.103670076462022,-4.701723375770001,-6.268351599945786,-9.17349551887006
9.056652842704322,-4.946925780672509,-6.360086555134487,-9.333569912965864
9.007183584897597,-5.174324429054079,-6.4534222542641455,-9.473599243348186
8.955440340607055,-5.3814845222445316,-6.548158246697628,-9.59229793091994
8.901625495384609,-5.566564766865569,-6.644081226006827,-9.689088464339877
8.845959847715953,-5.728372181431709,-6.740972110650226,-9.76410801289222
8.788676125901636,-5.86636219973258,-6.8386131907791485,-9.818157502973033
8.73001250390431,-5.9805882879118615,-6.936794765808878,-9.852602813549002
8.670206621025192,-6.071611993012957,-7.0353207939443685,-9.869243673545492
8.609490501095063,-6.140388196248579,-7.134013230679823,-9.870168137071069
8.548086619132578,-6.18814099986754,-7.232714912050534,-9.857609267927167
8.486205209133903,-6.216243678973747,-7.331291004729806,-9.833816900448777
8.424042772344166,-6.226112547860802,-7.429629173734294,-9.800952468379954
8.361781646865557,-6.219120560494459,-7.527638698418094,-9.761010184504505
8.299590441260612,-6.196532857167322,-7.6252488002631384,-9.715764141279907
8.237625112688939,-6.159463756327907,-7.722406441675938,-9.666738506577301
8.176030475125659,-6.108852982025544,-7.819073826741711,-9.615196832039425
8.114941945305404,-6.045458082451499,-7.915225795062105,-9.562146279869664
8.054487364480888,-5.969859793595831,-8.010847257860801,-9.508352953013572
7.9947887665449295,-5.882477283231506,-8.105930787390937,-9.454365171150275
7.9359639937126145,-5.783590567456259,-8.20047443910244,-9.400542243113666
7.878128088038052,-5.67336778127379,-8.294479861533576,-9.34708690666116
7.821394410225314,-5.551895323411863,-8.387950730600188,-9.294080073442023
7.765875456991195,-5.419209149838678,-8.480891531334608,-9.241516817308293
7.711683365492808,-5.2753256611537225,-8.573306699507691,-9.189342697884511
7.658930108881271,-5.120270739268806,-8.665200126486537,-9.137489557943715
7.6077274014885825,-4.954105573326788,-8.756575022065974,-9.085909921234114
7.558186345755314,-4.776948011403603,-8.847434121278315,-9.034609097428284
7.510416865641278,-4.588988316549109,-8.937780212252598,-8.983674119054267
7.464526982475787,-4.390498415739248,-9.02761695344314,-8.933298728143802
7.420621998318395,-4.1818340153804865,-9.116949940724577,-8.883803820039331
7.37880365816459,-3.963429306120383,-9.20578797892497,-8.835653042972453
7.339169365103386,-3.7357843643840156,-9.294144509354695,-8.789463631215078
7.301811521459546,-3.4994457362519418,-9.382039145666845,-8.746012987955298
7.266817064097026,-3.2549810123464162,-9.469499275546397,-8.706241993195604
7.234267253973562,-3.0029484234817865,-9.556561695478353,-8.671256452229503
7.204237769738745,-2.743862569302224,-9.643274260000648,-8.642328489432378
7.176799144045723,-2.478157315725705,-9.729697544894972,-8.620900012876511
7.152017570888466,-2.2061466609556835,-9.815906545023736,-8.608590629243237
7.129956104278909,-1.9279839927643687,-9.901992451316168,-8.607212595489388
7.110676264351265,-1.6436196784408175,-9.988064577271063,-8.61879558520524
7.094240067566857,-1.3527563993022564,-10.074252533123115,-8.645624252217424
7.080712503573834,-1.0548011501459749,-10.16070877564529,-8.690291790006327
7.070164492072375,-0.7488125198256806,-10.247611693545354,-8.755772826852489
7.062676366874118,-0.4334420457839591,-10.335169421813879,-8.845518780661203
7.058341946416279,-0.10686971360051672,-10.423624609620491,-8.963577501456632
7.057273249280274,0.2332625955089362,-10.513260384635057,-9.114734951877626
7.059605875235364,0.5899067503077906,-10.604407734153833,-9.304665935343113
7.065504942738442,0.9666190445572915,-10.697454393507265,-9.540054756318103
7.075171133184015,1.367444572308929,-10.792854941070445,-9.82858586118846
7.0888455789071045,1.7964903685484734,-10.89114079968233,-10.178567296903253
7.106810482592589,2.256782516711914,-10.992926472651362,-10.597652202035531
7.129378307759708,2.7475679664869572,-11.098902994671718,-11.089524240061179
7.156853987424578,3.2585100645452325,-11.20979823707233,-11.646408942599095
7.18943908807003,3.7587043146338734,-11.326262326498322,-12.234470481405781
7.227026131216368,4.180881500983531,-11.44860703131238,-12.772323152473511
7.268834946226203,4.414047623291926,-11.576330262837114,-13.12033401578177
7.312975422459123,4.341003020885368,-11.707533602994932,-13.130078308675891
7.356385452667976,3.9330345463157528,-11.838834386081691,-12.77019267850561
7.395715798131134,3.293666617307781,-11.966536312866747,-12.181404540593276
7.4286524643042116,2.566755814725848,-12.08835035827268,-11.5500640538406
