th1 (rad),w1 (rad/s),th2 (rad),w2 (rad/s),a1 (rad/s^2),a2 (rad/s^2)
3.123454735198272,2.8056614800289807,5.024513742984637,-1.600068160318287,1.412310980982829,2.3381706707476053
3.151511349998562,2.819784589838809,5.008513061381454,-1.576686453610811,1.5997809700929444,2.1973456175041184
3.17970919589695,2.8357823995397387,4.992746196845347,-1.5547129974357699,1.7914353439174073,2.0402332406982304
3.2080670198923475,2.853696752978913,4.977199066870989,-1.5343106650287877,1.9888174205677231,1.866329112789122
3.2366039874221366,2.87358492718459,4.961855960220701,-1.5156473739008964,2.1934653566830433,1.6748919704632697
3.2653398366939825,2.8955195807514205,4.946699486481692,-1.4988984541962638,2.406938681951594,1.4649473264784107
3.2942950325014966,2.9195889675709363,4.93171050193973,-1.4842489809314796,2.630844854745246,1.2352873377619096
3.3234909221772058,2.9458974161183886,4.916868012130415,-1.4718961075538606,2.866866107423212,0.9844669949973148
3.3529498963383895,2.9745660771926206,4.902149051054876,-1.4620514376038873,3.116786846302686,0.7107968467751298
3.3826955571103157,3.0057339456556473,4.887528536678838,-1.454943469136136,3.3825218040427227,0.4123326554813641
3.412752896566872,3.0395591636960746,4.872979101987476,-1.4508201425813223,3.6661449947870977,0.08686265277803558
3.443148488203833,3.0762206136439456,4.858470900561663,-1.4499515160535419,3.9699192617357872,-0.2681065135452017
3.4739106943402724,3.1159198062613034,4.843971385401128,-1.452632581188994,4.296325776439256,-0.6553633775153721
3.5050698924028856,3.1588830640256957,4.829445059589238,-1.4591862149641477,4.648092158506286,-1.078001973419337
3.5366587230431423,3.2053639856107585,4.8148531974395965,-1.469966234698341,5.028216792006009,-1.5394243905813998
3.56871236289925,3.2556461535308188,4.800153535092613,-1.485360478604155,5.4399852021011235,-2.043328501869553
3.601268824434558,3.31004600555183,4.7852999303065715,-1.5057937636228504,5.886971688220267,-2.593669824022593
3.6343692844900763,3.3689157224340325,4.770241992670343,-1.5317304618630763,6.373015282526014,-3.194580363676897
3.668058441714417,3.4326458752592925,4.754924688051712,-1.5636762654998453,6.902152759498459,-3.85021800048904
3.7023849004670097,3.5016674028542774,4.739287925396714,-1.6021784455047356,7.4784817613722785,-4.564505900810529
3.7374015744955527,3.576452220468,4.723266140941667,-1.6478235045128409,8.105912571161829,-5.340700464307296
3.7731660967002325,3.6575113461796183,4.7067879058965385,-1.701230509155914,8.7877456050032,-6.180695530283603
3.8097412101620285,3.7453888022296504,4.689775600804979,-1.7630374644587499,9.525980913491102,-7.083926745502478
3.847195098184325,3.8406486113645615,4.672145226160391,-1.8338767319137745,10.320223898886681,-8.045680568866056
3.8856015842979703,3.9438508503534284,4.653806458841253,-1.914333537602435,11.165998707577609,-9.054538724294918
3.925040092801505,4.055510837429204,4.634663123465229,-2.0048789248453844,12.052225946251047,-10.088614006313039
3.965595201175797,4.1760330968917145,4.614614334216775,-2.105765064908515,12.95759260435149,-11.110198351614066
4.007355532144714,4.305609022935229,4.59355668356769,-2.2168670484246555,13.84560890738249,-12.058549612048042
4.050411622374066,4.444065112009055,4.5713880130834434,-2.337452544545136,14.658454706411018,-12.840998312276259
4.094852273494157,4.590649659073165,4.548013487637992,-2.4658625276678987,15.310521685462447,-13.32372370842323
4.140758770084888,4.743754875927789,4.523354862361313,-2.599099764752131,15.684189259620187,-13.325901275863751
4.188196318844166,4.900596768523991,4.497363864713792,-2.7323587775107683,15.632968474784763,-12.624649695470952
4.2372022865294054,5.0569264532718385,4.470040276938684,-2.8586052744654777,14.999854591932895,-10.982072234445598
4.287771551062124,5.206924999191168,4.44145422419403,-2.9684259968099336,13.658390792759292,-8.205179182008818
4.339840801054036,5.3435089071187605,4.411769964225931,-3.0504777886300216,11.574890936810235,-4.236486815366077
4.393275890125223,5.459257816486863,4.381265186339631,-3.092842656783682,8.86940952257748,0.7568229299687822
4.447868468290092,5.547951911712638,4.350336759771794,-3.0852744274839945,5.831914823409464,6.357732221990464
4.503347987407218,5.6062710599467325,4.319484015496954,-3.02169710526409,2.8582355853181554,11.989578310361386
4.559410698006685,5.634853415799914,4.289267044444313,-2.901801322160476,0.3230319717466843,17.09797475449923
4.6157592321646845,5.638083735517381,4.260249031222708,-2.730821574615484,-1.537407616240018,21.320915533594967
4.672140069519858,5.622709659354981,4.232940815476553,-2.517612419279534,-2.6660745236929784,24.551199807341135
4.728367166113408,5.596048914118051,4.207764691283757,-2.2721004212061224,-3.146751671611344,26.884910704550002
4.784327655254589,5.564581397401938,4.185043687071696,-2.0032513141606225,-3.1325409965702153,28.520900681503974
4.839973469228608,5.5332559874362355,4.16501117393009,-1.7180423073455828,-2.7858009464547355,29.67463416080943
4.8953060291029695,5.505397977971688,4.147830750856634,-1.4212959657374884,-2.245678444740952,30.530292707933047
4.9503600088826865,5.482941193524279,4.133617791199259,-1.115993038658158,-1.6184619698399774,31.225170814972795
5.0051894208179295,5.4667565738258785,4.122457860812678,-0.80374133050843,-0.9802744470704691,31.85189899712753
5.059856986556189,5.456953829355174,4.114420447507594,-0.4852223405371547,-0.3840885838141701,32.467224085681266
5.1144265248497405,5.4531129435170325,4.1095682241022224,-0.160550099680342,0.13311359012895063,33.101384873195364
5.1689576542849105,5.454444079418322,4.107962723105419,0.17046374905161166,0.5445813421799984,33.76583046599013
5.223502095079094,5.459889892840122,4.109667360595935,0.508122053711513,0.8296803493240184,34.458893561384876
5.278100994007495,5.468186696333363,4.114748581133051,0.8527109893253617,0.9711863684353305,35.16974334209499
5.332782860970829,5.477898560017716,4.123275691026304,1.2044084227463117,0.9536547464798498,35.88110573449932
5.387561846571006,5.487435107482515,4.135319775253767,1.5632194800913048,0.7625759649473389,36.571193171389844
5.442436197645831,5.495060867131988,4.15095197005468,1.9289314118052032,0.3841005892037499,37.2151859340191
5.497386806317151,5.4989018730240256,4.170241284172732,2.3010832711453943,-0.1948196962544327,37.7865095798379
5.552375825047392,5.496953676061481,4.193252116884186,2.6789483669437733,-0.9859849899673289,38.258072579464745
5.607345361808006,5.487093826161808,4.220041600553624,3.0615290927384207,-1.9992798623562527,38.60356449427571
5.662216300069624,5.467101027538246,4.250656891481008,3.4475647376811778,-3.2418625270451025,38.79886345434931
5.716887310345006,5.434682402267795,4.2851325388578205,3.8355533722246706,-4.717288497967463,38.82355847329997
5.771234134367685,5.38750951728812,4.3234880725800675,4.22378895695767,-6.42465420223743,38.66255512247564
5.8251092295405655,5.323262975265746,4.365725962149644,4.610414508182426,-8.35785563809518,38.3077019433953
5.878341859293223,5.239684418884794,4.411830107231468,4.99349152761638,-10.505065128565503,37.75935083248316
5.930738703482071,5.134633767599139,4.461765022507632,5.371085035941211,-12.848531872881182,37.02774963249354
5.982085041158062,5.006148448870327,4.515475872867044,5.741362532266146,-15.364805949412023,36.13416198720273
6.032146525646765,4.852500389376207,4.5728894981897055,6.102704152138173,-18.025467834513748,35.11162080611328
6.080671529540528,4.67224571103107,4.6339165397110875,6.453820360199306,-20.79841455561324,34.005249324761216
6.127393986650838,4.464261565474938,4.69845474331308,6.793872853446919,-23.6497090803015,32.87212782271585
6.172036602305587,4.227764474671923,4.766393471847549,7.122594131674077,-26.545943233030382,31.780741479004227
6.2143142470523065,3.962305042341619,4.8376194131642904,7.44040154646412,-29.456999722225202,30.810107523291535
6.253937297475723,3.667735045119367,4.912023428628932,7.748502621697035,-32.359028727798055,30.048732326903636
6.290614647926916,3.344144757841386,4.989508454845902,8.048989944966072,-35.23737648772705,29.593564677202128
6.32405609550533,2.9917709929641156,5.069998354295563,8.344925591738093,-38.089099549112056,29.549044221817294
6.353973805434972,2.610879997472995,5.153447610212943,8.640416033956265,-40.92451669133039,30.026109963525894
6.380082605409702,2.201634830559691,5.239851770552506,8.940677133591524,-43.766868769466264,31.140467202222645
6.402098953715298,1.7639661428650284,5.3292585418884215,9.25208180561375,-46.64831209535704,33.00816910888336
6.419738615143949,1.297483021911458,5.421779359944559,9.582163496702584,-49.59862247238142,35.73393101215728
6.432713445363063,0.8014967971876437,5.517600994911585,9.939502806824157,-52.61907152836358,39.38210029683981
6.44072841333494,0.27530608190400785,5.616996022979826,10.333323809792555,-55.62607913375851,43.909183063698535
6.443481474153979,-0.28095470943357725,5.720329261077752,10.772415640429541,-58.33513901483528,49.016776432569756
6.440671927059643,-0.86430609958193,5.828053417482047,11.262583404755238,-60.03713513523163,53.85653079804199
6.432028866063824,-1.4646774509342464,5.940679251529599,11.801148712735658,-59.225268222468294,56.52222957631673
6.417382091554481,-2.0569301331589296,6.0586907386569555,12.366371008498826,-53.18637902412089,53.468328877890784
6.396812790222892,-2.5887939234001385,6.182354448741944,12.901054297277733,-38.267456505969704,39.8035638733809
6.3709248509888905,-2.9714684884598355,6.311364991714721,13.299089936011542,-12.450264343356919,12.677643974576103
6.341210166104292,-3.0959711318934047,6.444355891074837,13.425866375757304,19.759285906132973,-22.21381517990827
6.310250454785359,-2.898378272832075,6.57861455483241,13.20372822395822,47.27155555952124,-50.6602459884729
6.281266672057038,-2.4256627172368623,6.7106518370719925,12.697125764073492,62.28098531758062,-63.13950002841671
6.2570100448846695,-1.8028528640610562,6.837623094712727,12.065730763789325,66.2426516344346,-62.32949585774722
6.238981516244059,-1.1404263477167103,6.958280402350621,11.442435805211852,64.41835600159101,-55.441470953858776
6.227577252766892,-0.4962427877008002,7.072704760402739,10.888021095673265,60.59971122381976,-47.35850470082104
6.222614824889884,0.10975432453739742,7.181584971359472,10.414436048665054,56.51224028902468,-40.135264337589774
6.223712368135257,0.6748767274276443,7.285729331846122,10.013083405289157,52.72802345361554,-34.342060339309356
6.230461135409533,1.2021569619637997,7.385860165899014,9.669662801896063,49.34094311771622,-29.979677563800973
6.242482705029172,1.695566393140962,7.482556793917975,9.369866026258054,46.281362191052914,-26.879667254061527
6.2594383689605815,2.158380015051491,7.576255454180555,9.101069353717438,43.44052963004725,-24.84839467613163
6.281022169111097,2.5927853113519634,7.667266147717729,8.852585406956122,40.715358310539436,-23.70957850088112
6.306950022224616,2.9999388944573577,7.755792001787291,8.61548962194731,38.02273609414904,-23.31113933187584
6.33694941116919,3.3801662553988483,7.841946898006764,8.382378228628552,35.30275200713017,-23.52129416902864
6.370751073723178,3.73319377547015,7.925770680293049,8.147165286938264,32.518042562099915,-24.2227659922136
6.4080830114778795,4.058374201091149,8.007242333162433,7.904937627016128,29.65177800348322,-25.308006028971402
6.448666753488791,4.354891981125981,8.086291709432594,7.651857566726414,26.70508440871853,-26.676158288096058
6.49221567330005,4.621942825213166,8.162810285099857,7.385095983845454,23.694120801233385,-28.23171745525238
6.5384351015521815,4.8588840332255,8.236661244938311,7.10277880929293,20.64688985134355,-29.88455535085909
6.5870239418844365,5.065352931738936,8.30768903303124,6.803933255784339,17.599872536061703,-31.550903193863142
6.637677471201826,5.241351657099552,8.375728365589083,6.4884242238457075,14.59462392222355,-33.15487012512386
6.690090987772821,5.387297896321788,8.440612607827541,6.1568755225944685,11.674500677503305,-34.630116683822244
6.74396396673604,5.5040429030968205,8.502181363053486,5.810574355756246,8.881694920118989,-35.92136910875622
6.799004395767008,5.592859852298011,8.560287106611048,5.451360664668684,6.254724279766509,-36.985543896649894
6.854932994289988,5.655407095095676,8.614800713257734,5.081505225702185,3.826483484928172,-37.79233994291357
6.911487065240944,5.693671929944958,8.665615765514756,4.703581826273049,1.6229096990099978,-38.32423769986806
6.968423784540394,5.709901026935057,8.712651583777486,4.3203394492743685,-0.33773805625657777,-38.57591454039346
7.025522794809745,5.706523646372491,8.75585497827023,3.934580303870434,-2.0450293451078747,-38.553140075318474
7.0825880312734695,5.6860733529214125,8.795200781308935,3.5490489031172494,-3.4960202829011466,-38.27125431020894
7.139448764802683,5.651113150092401,8.830691270340107,3.16633636001516,-4.694519122364396,-37.75335607922379
7.1959598963036076,5.604167958868757,8.862354633940258,2.788802799222922,-5.6500712623048175,-37.02834003040905
7.2520015758922955,5.547667246245709,8.890242661932488,2.4185193989188316,-6.376777351065839,-36.12891829928555
7.3074782483547525,5.48389947273505,8.914427855921677,2.0572302159259763,-6.892051341316548,-35.089748991392476
7.362317243082103,5.414978959321885,8.935000158080936,1.7063327260120515,-7.215411378014488,-33.945769730930635
7.416467032675322,5.34282484554174,8.952063485341055,1.3668750287027451,-7.367377336743273,-32.730803987642815
7.469895281130739,5.269151072174307,8.965732235628083,1.039566988826317,-7.368527220835668,-31.47647461478241
7.522586791852483,5.195465799965951,8.976127905516346,0.7248022426784929,-7.238743186043462,-30.21142699919572
7.574541449852142,5.123078368105516,8.983375927943131,0.42268797268653574,-6.996659152269365,-28.960836644520285
7.625772233533198,5.053111776582822,8.987602807669996,0.13307960624133286,-6.659307638842208,-27.746154732117546
7.676303351299026,4.9865187001944005,8.98893360373241,-0.1443819410798426,-6.241954707401037,-26.585030541126464
7.72616853830097,4.92409915312039,8.98748978432161,-0.41023224649110723,-5.75810907297631,-25.49134049964229
7.775409529832174,4.866518062390627,8.9833874618567,-0.6651456514875301,-5.219694376416253,-24.475248066031973
7.824074710456081,4.814321118626465,8.976736005341824,-0.9098981321478499,-4.637381829057563,-23.543214140676387
7.872217921642346,4.767947300335889,8.967637024020345,-1.1453302735546138,-4.021093313419522,-22.69787193660009
7.919897394645704,4.727736367201694,8.956183721284798,-1.3723089929206147,-3.3807016484223342,-21.937671650209516
7.9671747583177215,4.693929350717471,8.942460631355592,-1.59168570942271,-2.7269733354451033,-21.256189240659467
8.014114051824896,4.6666596173630195,8.926543774261365,-1.8042476018293045,-2.072815619387471,-20.640984512072652
8.060780647998525,4.645931461169145,8.908501298243072,-2.010657446950031,-1.4348948807047088,-20.07189879872055
8.107239962610217,4.6315825123620975,8.888394723773573,-2.2113764349372365,-0.835667769874403,-19.518729016008233
8.153555787733838,4.623225834663353,8.8662809594242,-2.406563725097319,-0.3057729812112404,-18.938354899297497
8.19978804608047,4.620168104851241,8.842215322173226,-2.595947274090294,0.11349225254687557,-18.2717176231984
8.245989727128983,4.62130302737671,8.816255849432324,-2.7786644503222777,0.3683260141302877,-17.441669737512477
8.29220275740275,4.624986287518013,8.7884692049291,-2.9530811476974024,0.39264194468756447,-16.353730297549436
8.33845262027793,4.628912706964888,8.758938393452127,-3.1166184506728967,0.11270884398517236,-14.903060791076353
8.38474174734758,4.630039795404739,8.727772208945398,-3.2656490585836604,-0.5408386095695977,-12.991797922688647
8.431042145301626,4.6246314093090435,8.695115718359562,-3.395567037810547,-1.611637694968219,-10.559471228375207
8.477288459394718,4.608515032359361,8.661160047981456,-3.501161750094299,-3.089197446907652,-7.623134778855376
8.52337360971831,4.577623057890285,8.626148430480512,-3.5773930978828528,-4.883771539914867,-4.312543814374988
8.569149840297214,4.528785342491136,8.590374499501683,-3.620518536026603,-6.822067612847593,-0.8755326015127005
8.614437693722126,4.46056466636266,8.554169314141417,-3.62927386204173,-8.678069998327508,2.3664580506545003
8.659043340385752,4.373783966379385,8.517876575520999,-3.605609281535185,-10.233758880165972,5.105054225026215
8.702781180049547,4.271446377577726,8.481820482705647,-3.5545587392849227,-11.340970343305148,7.132871308430874
8.745495643825324,4.158036674144674,8.446274895312797,-3.483230026200614,-11.951931987247455,8.38662784605995
8.787076010566771,4.0385173542722,8.41144259505079,-3.3993637477400145,-12.10832612690185,8.931166043286431
8.827461184109493,3.9174340930031812,8.37744895757339,-3.31005208730715,-11.904905186579438,8.907257191353285
8.866635525039525,3.798385041137387,8.344348436700319,-3.2209795153936174,-11.451403018521248,8.477007045512499
8.904619375450899,3.6838710109521746,8.312138641546383,-3.1362094449384923,-10.846982357529761,7.787156452819273
8.94145808556042,3.575401187376877,8.280776547096998,-3.0583378804102996,-10.169121991931506,6.953020116871347
8.977212097434188,3.473709967457562,8.250193168292896,-2.988807679241586,-9.472452781025025,6.056687161525865
9.011949197108764,3.3789854396473116,8.22030509150048,-2.9282408076263273,-8.792362941597089,5.152101411327348
9.045739051505237,3.2910618102313407,8.191022683424217,-2.876719793513054,-8.149883885617797,4.272030671366348
9.07864966960755,3.2095629713751626,8.162255485489087,-2.8339994867993905,-7.556151791959302,3.434471168549093
9.110745299321302,3.1340014534555696,8.133915490621094,-2.7996547751138996,-7.015883084821561,2.6476655933102173
9.142085313855857,3.063842622607354,8.105918942869955,-2.7731781191807974,-6.529854923846135,1.9137076055199618
9.17272374008193,2.9985440733688926,8.078187161678148,-2.7540410431255977,-6.096579053860178,1.230992803775528
9.202709180815619,2.937578282830291,8.050646751246893,-2.7417311150878425,-5.71338615973619,0.595821644438303
9.232084963643922,2.880444421232929,8.023229440096014,-2.7357728986434595,-5.377104386605491,0.0034149268683580686
9.260889407856252,2.826673377366874,7.995871711109579,-2.735738749374776,-5.084468984741073,-0.5514624297099134
9.28915614162992,2.7758286875194633,7.968514323615832,-2.741253373671875,-4.832358570968604,-1.0741317723267885
9.316914428505115,2.7275051018097773,7.941101789879113,-2.751994691395143,-4.6179218864948695,-1.569792255323593
9.344189479523212,2.6813258829448285,7.913581842965161,-2.767692613948379,-4.4386365512295605,-2.0434120718549598
9.37100273835266,2.6369395174325327,7.885904916825678,-2.7881267346669287,-4.292326093968788,-2.4996792551274205
9.397372133526986,2.594016256492845,7.8580236494790086,-2.813123527218203,-4.177151398803121,-2.942985921530297
9.423312296091915,2.552244742504814,7.829892414206826,-2.8425533864335057,-4.091585992816931,-3.377428745141957
9.448834743516963,2.511328882576645,7.801466880342491,-2.8763276738849255,-4.034380103620269,-3.8068139316775427
9.47394803234273,2.470985081540442,7.772703603603642,-2.914395813201701,-4.0045152997975615,-4.2346581092408915
9.498657883158133,2.4309399285424664,7.743559645471625,-2.95674239429411,-4.001149221069983,-4.664178094057244
9.522967282443558,2.3909284363317664,7.713992221528684,-3.0033841752346824,-4.0235480181601195,-5.098262872646412
9.546876566806876,2.3506929561501653,7.683958379776337,-3.0543668039611465,-4.071002388625783,-5.539420640132981
9.570383496368377,2.3099829322639076,7.653414711736725,-3.1097610103624764,-4.1427213359122925,-5.989692512069951
9.593483325691016,2.2685557189047847,7.622317101633101,-3.1696579354831758,-4.237695891002134,-6.450522701381037
9.616168882880064,2.2261787599947636,7.590620522278269,-3.234163162496986,-4.354523000576759,-6.922572656374744
9.638430670480012,2.182633529988996,7.558278890653299,-3.3033888890607335,-4.491177706723747,-7.405464122719716
