th1 (rad),w1 (rad/s),th2 (rad),w2 (rad/s)
3.790654180968448,-3.037079156308382,5.088843721356755,-0.41085619642936416
3.760283389405364,-2.975094926775665,5.084735159392461,-0.42523991888331714
3.7305324401376074,-2.9162967048543753,5.080482760203628,-0.43413355152908717
3.7013694730890636,-2.860528043472087,5.076141424688337,-0.4378967602411472
3.6727641926543426,-2.8076501784136543,5.071762457085925,-0.43686728339728753
3.644687690870206,-2.757539156106257,5.067393784251952,-0.4313630254120756
3.617112299309144,-2.7100833881374395,5.063080153997832,-0.42168384623273375
3.5900114654277693,-2.6651815808722787,5.058863315535504,-0.40811309039225196
3.5633596496190463,-2.6227409933225827,5.0547821846315815,-0.39091889602267643
3.5371322396858202,-2.5826759813944355,5.050872995671354,-0.37035531993314486
3.5113054798718757,-2.5449067914312082,5.047169442472023,-0.34666331025727687
3.4858564119575637,-2.5093585704036845,5.04370280936945,-0.32007155372033763
3.460762826253527,-2.4759605641133575,5.040502093832247,-0.29079722049959766
3.436003220612393,-2.4446454783646963,5.037594121627251,-0.25904662605403905
3.4115567658287462,-2.4153489812527917,5.035003655366711,-0.22501582620921937
3.3874032760162183,-2.3880093275431045,5.032753497104618,-0.18889115918452865
3.363523182740787,-2.3625670886330203,5.030864585512773,-0.15084974610584762
3.339897511854457,-2.338964973822817,5.029356088051714,-0.11105995980931571
3.316507862116229,-2.3171477306255905,5.028245488453621,-0.06968187036141218
3.2933363848099733,-2.297062113646893,5.027548669750007,-0.026867674648201924
3.2703657636735044,-2.2786569131961762,5.027279993003525,0.017237883422460132
3.2475791945415424,-2.2618830362805555,5.027452371837749,0.06249709614776798
3.2249603641787368,-2.246693633999939,5.028077342799227,0.1087788731253233
3.2024934278387374,-2.2330442706307054,5.02916513153048,0.1559583148957729
3.1801629851324305,-2.2208931308689817,5.030724714679438,0.20391627391854952
3.1579540538237407,-2.2102012628167507,5.032763877418623,0.2525388976642152
3.135852041195573,-2.2009328553435252,5.0352892663952655,0.3017171485161542
3.1138427126421377,-2.193055549447899,5.038306437880427,0.35134629501597825
3.0919121571476587,-2.1865407841766817,5.041819900830587,0.4013253687836853
3.070046749305892,-2.1813641785279465,5.045833154518424,0.451556581222641
3.0482331075206126,-2.1775059515533233,5.05034872033065,0.5019446939160934
3.0264580480050793,-2.174951383558669,5.055368167269811,0.5523963364837875
3.0047085341694926,-2.1736913218408422,5.060892130634649,0.6028192656598508
2.9829716209510844,-2.1737227347328156,5.066920323291248,0.6531215595671136
2.9612343936037564,-2.1750493177757635,5.073451538886919,0.7032107417232031
2.9394839004259987,-2.177682155478414,5.080483646304151,0.7529928303905122
2.9177070788712145,-2.1816404412018473,5.0880135746080555,0.8023713107054351
2.895890674459196,-2.1869522560095147,5.096037287715109,0.8512460298983034
2.874021151899101,-2.193655404568251,5.104549748014093,0.8995120202458121
2.8520845978534184,-2.2017983020168006,5.113544868216551,0.9470582606996117
2.8300666148332505,-2.2114408996811026,5.123015450823547,0.9937663970601294
2.8079522058364397,-2.2226556290562054,5.132953114794148,1.0395094529133007
2.7857256495458778,-2.2355283319400248,5.143348209323281,1.084150580266017
2.7633703662264777,-2.250159129264047,5.154189715125941,1.127541920967562
2.7408687749338374,-2.2666631612696078,5.165465134335617,1.1695236786933918
2.7182021433211414,-2.285171106565297,5.17716037112255,1.2099235374839235
2.6953504322554886,-2.3058293568955133,5.189259606497389,1.248556607176758
2.6722921386865335,-2.3287996883705016,5.201745172569157,1.2852261283214566
2.6490041418028283,-2.354258229726612,5.214597433852371,1.3197252276133817
2.6254615595055624,-2.382393486860797,5.227794686128505,1.3518400754245592
2.6016376246369544,-2.413403145854935,5.241313086882751,1.381354851994159
2.577503593178405,-2.4474893527638,5.255126635402692,1.4080589657872467
2.553028699650767,-2.484852170461929,5.269207225060565,1.4317569680076825
2.5281801779461475,-2.5256809579912094,5.283524794740641,1.4522815464958356
2.5029233683662353,-2.570143526603763,5.298047610205599,1.469509830408192
2.4772219331001977,-2.6183731199002067,5.312742708509681,1.4833829633215518
2.451038201901196,-2.670453558580592,5.327576538142897,1.4939284830290913
2.42433366631539,-2.726403284531245,5.342515822973188,1.5012844775226488
2.3970696334700774,-2.786159509991201,5.357528667748414,1.5057238009563747
2.3692080383701652,-2.8495641651211776,5.372585905757978,1.5076759153156445
2.3407123967189536,-2.9163537406742606,5.387662664911135,1.5077433174154846
2.311548859312211,-2.986155308815705,5.40274009808529,1.506709210276613
2.281687306224054,-3.0584908366335957,5.417807190188056,1.5055332881155454
2.251102397857718,-3.1327912859918734,5.432862523069212,1.505333377256713
2.219774484997799,-3.208420915525953,5.447915856841779,1.5073522327419064
2.1876902758425394,-3.284710792562019,5.462989379169198,1.5129108636133606
2.154843167916919,-3.3609990419399507,5.4781184878053315,1.5233519849616026
2.1212331774975195,-3.4366741389541806,5.493352007654948,1.5399790852568038
2.086866436107978,-3.511216907448235,5.508751798507515,1.563997682620675
2.0517542670334956,-3.584236997118816,5.524391775333722,1.5964653252749186
2.0159118970623076,-3.6555004773754924,5.540356428586471,1.6382557506882007
1.9793568922885527,-3.724946597211187,5.556738986093353,1.6900406247789435
1.9421074263164408,-3.7926933978101616,5.573639392341143,1.7522899028524903
1.9041804923383392,-3.859033386924561,5.591162291369668,1.8252895991516744
1.8655901584690935,-3.9244216310663065,5.609415187361185,1.9091740342013181
1.8263459421584305,-3.989459266421339,5.628506927703198,2.003968673948109
1.7864513494942171,-4.054875581053001,5.648546614442679,2.109639507326196
1.7459025936836872,-4.121511588481674,5.669643009515941,2.2261454003950814
1.7046874777988705,-4.190307554286641,5.691904463519892,2.3534908062543396
1.662784402256004,-4.262296414191389,5.715439371582435,2.491777382391851
1.6201614381140903,-4.33860456842692,5.740357145406353,2.6412542951492717
1.5767753924298211,-4.420461248405732,5.766769688357845,2.8023681665841567
1.5325707799457637,-4.509217586603341,5.794793370023687,2.9758147057989914
1.4874786040797303,-4.606376711132229,5.824551517081677,3.16259508977607
1.441414836968408,-4.713636649655888,5.856177467979437,3.364081186322906
1.3942784704718492,-4.83294857069738,5.889818279842666,3.582094831858536
1.3459489847648753,-4.966593903848032,5.925639228161252,3.81900765968036
1.296283045726395,-5.117285093002588,5.963829304758056,4.077869396420368
1.2451101947963692,-5.288295893559921,6.00460799872226,4.362573807287927
1.19222723586077,-5.48362746655993,6.048233736795138,4.6780715516185065
1.1373909611951707,-5.708213979471614,6.095014452311323,5.030635233679155
1.0803088214004546,-5.968160583068812,6.145320804648115,5.428166333954009
1.0206272155697664,-6.270973647155731,6.199602467987655,5.880487093950812
0.9579174790982091,-6.625653049949225,6.258407338927164,6.399433837923736
0.8916609485987169,-7.042282798725915,6.322401677306401,6.998240642412295
0.8212381206114577,-7.530177803993316,6.392384083730525,7.68889101731465
0.7459363425715246,-8.092323524274653,6.4692729939036715,8.4742617771558
0.6650131073287782,-8.711422174153702,6.554015611675229,9.328481538717078
0.5778988855872411,-9.321486045839803,6.6473004270624,10.156996063625304
0.48468402512884307,-9.773140460703422,6.748870387698653,10.747813828061393
0.38695262052180884,-9.860521220468641,6.856348525979267,10.809318996721121
0.2883474083171224,-9.501358048819274,6.964441715946478,10.223212234960531
0.19333382782892966,-8.87276110028545,7.066673838296083,9.235151859562297
0.10460621682607515,-8.217315093972886,7.159025356891706,8.18330616311545
0.02243306588634629,-7.653481903406082,7.240858418522861,7.233078906195598
-0.054101753147714524,-7.201901577758957,7.313189207584817,6.413475929722811
-0.1261207689253041,-6.849410121504475,7.377323966882045,5.706150687200279
-0.19461487014034884,-6.577547601904395,7.434385473754048,5.085101436738781
-0.26039034615939277,-6.370382012383228,7.485236488121436,4.527648388008608
-0.32409416628322507,-6.215591874305522,7.530512972001522,4.01605876104969
-0.3862500850262803,-6.103889992253153,7.570673559612018,3.5368753018429673
-0.4472889849488118,-6.028232038859311,7.606042312630448,3.079954234505612
-0.5075713053374049,-5.983145693780298,7.636841854975504,2.637680622688247
-0.5674027622752079,-5.964218643779727,7.663218661202387,2.2044137041348257
-0.6270449487130052,-5.967717966255267,7.685262798243735,1.776119209982538
-0.6867221283755579,-5.990308930459666,7.70302399034356,1.3501341486193397
-0.7466252176801546,-6.028850202572428,7.716525331829754,0.9250162576505918
-0.8069137197058789,-6.080251986319713,7.7257754944062595,0.5004385381811876
-0.8677162395690761,-6.141390583352994,7.730779879788072,0.07709612392872306
-0.929130145402606,-6.209076519472783,7.731550841027359,-0.3434009126848487
-0.9912209105973337,-6.280073714051001,7.728116831900511,-0.7586678410128108
-1.0540216477378437,-6.351164544647882,7.720530153490383,-1.1657283010447814
-1.1175332931843225,-6.419251012157489,7.708872870479936,-1.561238573018266
-1.1817258033058975,-6.48147709123041,7.693260484749753,-1.9417401011954223
-1.2465405742182016,-6.53535364335562,7.673843083737799,-2.303917950531075
-1.3118941106517579,-6.5788666114680945,7.650803904232488,-2.64483819640006
-1.3776827767664388,-6.61055232588702,7.624355522268488,-2.9621386867635664
-1.4437883000253091,-6.629530072576783,7.594734135400852,-3.254154819434213
-1.510083600751077,-6.635489953390751,7.56219258720651,-3.519972803631647
-1.5764385002849846,-6.628641431332069,7.526992859170194,-3.7594142345818997
-1.6427249145983052,-6.6096331152056464,7.4893987168243745,-3.97296485617702
-1.7088212457503615,-6.57945652961462,7.4496690682626046,-4.161665449473368
-1.7746158110465078,-6.539346050649073,7.408052413767871,-4.326983658135578
-1.8400092715529985,-6.490684733381078,7.364782577186515,-4.470683176383459
-1.9049161188868093,-6.43492247842132,7.320075745422681,-4.594702520521767
-1.9692653436710226,-6.373509773228726,7.274128720217464,-4.701050952237469
-2.03300044140331,-6.30784764700528,7.227118210695089,-4.7917249863595535
-2.0960789178733625,-6.239252700870854,7.179200960831493,-4.868645782216618
-2.158471444882071,-6.168935078142914,7.130514503009327,-4.9336156808173985
-2.2201607956635003,-6.097986856863422,7.0811783462011535,-4.988291066718583
-2.2811406642321344,-6.027378378727492,7.031295435533968,-5.034168361133245
-2.3414144480194095,-5.957960297592528,6.980953751922636,-5.072580043417868
-2.400994050995335,-5.890469503512745,6.930227951488457,-5.1046979458219806
-2.459898746030462,-5.825537467647517,6.8791809720302375,-5.131541522877543
-2.5181541207069373,-5.763699910226119,6.827865556801462,-5.153989267067726
-2.5757911198091987,-5.705406995684856,6.776325664130785,-5.1727918732554485
-2.6328451897660474,-5.651033500682356,6.72459774539823,-5.188586121553102
-2.689355524772871,-5.600888585822246,6.672711884182699,-5.201908745755717
-2.7453644106310935,-5.5552249386891335,6.620692796725142,-5.2132097860959234
-2.8009166600179847,-5.514247153529512,6.568560698864182,-5.222865099595923
-2.85605913155328,-5.478119280409603,6.516332047868223,-5.231187828850773
-2.910840324357376,-5.446971521572198,6.464020169579715,-5.238438720522752
-2.965310039573098,-5.42090608118373,6.411635782374487,-5.2448352468326345
-3.0195191003849353,-5.400002191534191,6.359187429906161,-5.250559524107792
-3.073519122300277,-5.384320347662395,6.306681834665083,-5.255765047737755
-3.127362325776901,-5.373905785990965,6.254124184187705,-5.260582277136606
-3.1811013836368107,-5.368791242765918,6.201518361416339,-5.265123110858952
-3.23478929606447,-5.368999026213774,6.14886713030775,-5.26948429331377
-3.288479286326608,-5.3745424332245015,6.096172287374612,-5.2737497923242485
-3.342224710658853,-5.385426537591151,6.04343478945137,-5.277992182321485
-3.3960789760347643,-5.401648372711674,5.990654867628154,-5.282273062080188
-3.450095459761881,-5.423196527359968,5.937832137007352,-5.286642529183049
-3.504327425035481,-5.45005016874618,5.884965711715522,-5.291137726245888
-3.558827926722943,-5.482177502653071,5.832054334453064,-5.2957804666695205
-3.6136497017494733,-5.519533675995213,5.779096529786369,-5.300573940610676
-3.6688450385094256,-5.562058122770892,5.726090790380262,-5.305498495331193
-3.7244656197371344,-5.60967135019293,5.67303580542695,-5.3105064785398275
-3.7805623332390637,-5.66227115801259,5.619930740641552,-5.315516129386673
-3.8371850448191895,-5.719728281027274,5.566775579347685,-5.320404500219189
-3.8943823276294625,-5.781881442977787,5.513571534345493,-5.324999394147491
-3.9522011420592404,-5.848531810180839,5.460321540404018,-5.3290703103265145
-4.010686460161049,-5.919436836246666,5.407030837300753,-5.332318402507512
-4.069880828523515,-5.994303496367038,5.353707653275678,-5.334365479239279
-4.129823863487186,-6.072780922617037,5.300363998483285,-5.334742109163288
-4.190551672713356,-6.1544524727334515,5.247016577391652,-5.332874945985976
-4.252096197440691,-6.238827296846264,5.193687827931792,-5.328073459682001
-4.314484470409154,-6.325331513435424,5.140407093334972,-5.319516359052697
-4.377737785543508,-6.413299172155731,5.087211929744446,-5.306238122717953
-4.441870777265065,-6.501963273000032,5.0341495485172665,-5.287116228559294
-4.506890409995066,-6.5904472354455965,4.981278386231674,-5.26085989341294
-4.5727948823495215,-6.677757375238367,4.928669787297545,-5.226001412344848
-4.639572456101905,-6.7627771573979345,4.876409773174096,-5.180891523880706
-4.707200227675885,-6.844264256580205,4.824600857935289,-5.123700620990096
-4.775642870241687,-6.920851769023349,4.773363851725389,-5.052428061627567
-4.844851387931921,-6.9910552716213825,4.722839571109113,-4.964922270338707
-4.914761940648134,-7.053287781917943,4.6731903484057264,-4.858914694899222
-4.985294818467313,-7.105884977716818,4.624601201456734,-4.732070875582091
-5.056353668244482,-7.147143186618997,4.577280492700913,-4.582061730294246
-5.127825100110671,-7.175372506868556,4.531459875397971,-4.406657429211486
-5.199578825179357,-7.1889667795292045,4.487393301105856,-4.203844659309563
-5.271468492974648,-7.186490785649207,4.44535485451276,-3.971965404946932
-5.34333340083114,-7.166782815583256,4.405635200463291,-3.709871451133367
-5.415001228986973,-7.129067613919813,4.368536485951957,-3.4170837764190263
-5.486291905126171,-7.073070877787535,4.334365648187767,-3.0939404217383997
-5.557022613904047,-6.999122613239999,4.3034262439703825,-2.7417114720699365
-5.6270138400364464,-6.908233804774434,4.276009129249683,-2.362657198558347
-5.696096178084191,-6.802130375331569,4.2523825572641,-1.9600071146354388
-5.7641174818375065,-6.683231512831432,4.232782486117745,-1.53784512012541
-5.830949796965821,-6.554566554748047,4.217404034916491,-1.1008990219581056
-5.896495462513301,-6.419634871242079,4.20639504469691,-0.6542493853031104
-5.960691811225722,-6.282224250938969,4.199852550843879,-0.2029887425018
-6.023514053735112,-6.1462120263423,4.197822663418861,0.24812723881230753
-6.084976173998535,-6.0153768190266845,4.200303935806984,0.6949936412255919
-6.1451299421888015,-5.893246202580382,4.20725387221924,1.1344007828036307
-6.204062404214605,-5.782997805446598,4.218597880047276,1.564190635973569
-6.261892382269071,-5.687421110930769,4.234239786407011,1.9833246865871732
-6.3187665933783785,-5.608937606106402,4.254073033272883,2.3918783500049483
-6.374855969439443,-5.549670334947033,4.277991816772933,2.7909869386574986
-6.430352672788913,-5.511551231590154,4.305901686159508,3.1827716370120753
-6.485468185104814,-5.496455406845459,4.337729402529629,3.5702722918160794
-6.540432739173268,-5.506354577049439,4.373432125447789,3.9574092175952265
-6.595496284943763,-5.543485503469012,4.4130062176237415,4.348990470128937
-6.650931139978453,-5.610531948353204,4.456496122325031,4.750774705300449
-6.7070364594619845,-5.710817908743769,4.504003869378035,5.169591121673853
-6.764144638549422,-5.848501235250734,4.555699780594773,5.613501246230788
-6.82262965090193,-6.028729788520713,4.611834793057081,6.091947814939175
-6.882916948787137,-6.257652328036712,4.672754271206473,6.61573887954178
-6.945493472067504,-6.542005704276714,4.73891166000189,7.196479650381856
-7.0109135291102715,-6.887602299647262,4.810876456505709,7.844513394755648
-7.079789552106744,-7.295186349105026,4.889321590453266,8.563241672009351
-7.152741415597794,-7.750641066477684,4.974954007173359,9.335614480567301
-7.230247826262571,-8.205652718156097,5.068310151979032,10.097336659341218
-7.312304353444132,-8.552480833962615,5.169283518572445,10.701836688492493
-7.397829161783758,-8.630315303142257,5.27630188545737,10.929279422493552
-7.48413231481518,-8.332039522124912,5.385594679682305,10.635453230663014
-7.567452710036429,-7.739480567579768,5.491949211988936,9.93918650211367
-7.644847515712227,-7.050019050358761,5.591341077010072,9.118034544487525
-7.715347706215815,-6.399844753766578,5.682521422454947,8.36228397914329
-7.7793461537534805,-5.832298564501981,5.76614426224638,7.732621583848177
-7.8376691393985,-5.345477835178739,5.843470478084861,7.227205428644044
-7.891123917750288,-4.924934240223006,5.9157425323713015,6.827180001919433
-7.940373260152517,-4.555626400821327,5.984014332390496,6.513169211309042
-7.98592952416073,-4.224924905217573,6.049146024503586,6.26935900377313
-8.028178773212906,-3.9228164294025696,6.111839614541317,6.083726426526265
-8.06740693750693,-3.641436105574192,6.17267687880658,5.9473543366033725
-8.103821298562673,-3.3745520315473256,6.232150422172613,5.853681602613152
-8.137566818878147,-3.1171513394052526,6.290687238198744,5.79788388328656
-8.1687383322722,-2.8651425253559597,6.34866607703161,5.776394887474938
-8.19738975752576,-2.615157582746086,6.406430025906359,5.786534780969669
-8.223541333353221,-2.3644356082449223,6.464295373716056,5.826208926960017
-8.247185689435671,-2.110774388989373,6.522557462985656,5.8936460225373075
-8.268293433325566,-1.8525413314616959,6.581493923211029,5.9871517703861965
-8.286818846640182,-1.5887378892263961,6.641365440914892,6.104861238261923
-8.302706225532447,-1.3191114184259085,6.7024140532975105,6.244480923164287
-8.315897339716706,-1.044304262008941,6.764858862529153,6.403021839304028
-8.326340382336795,-0.7660210245980392,6.828889080922194,6.576539193827243
-8.334000592582775,-0.4871813170122413,6.894654472860466,6.759912883762699
-8.338872405752898,-0.2120084944840871,6.962253601698094,6.946724109899916
-8.340992490697738,0.05400965908459465,7.0317208427970925,7.12930049306732
-8.340452394106892,0.304355072383465,7.103013847727766,7.299003589955513
-8.337408843383058,0.5319536743233928,7.176003883627321,7.446804259461448
-8.332089306639824,0.72988106597639,7.250471926221936,7.564124036169737
-8.32479049598006,0.8922100966533313,7.326113166583633,7.643823889077737
-8.315868395013528,1.0148315985836895,7.40255140547441,7.681131357804657
-8.30572007902769,1.0960450462518139,7.479362719052457,7.674265293730909
-8.294759628565172,1.136758942201175,7.556105371989766,7.624580289280508
-8.28339203914316,1.1402542434846854,7.6323511748825705,7.536196019920985
-8.271989496708313,1.1115971553662556,7.7077131350817805,7.415234471674662
-8.26087352515465,1.0568769399648241,7.781865479798527,7.268885220025582
-8.250304755755002,0.9824567511387888,7.8545543319987825,7.104521216173109
-8.240480188243614,0.894373415638769,7.925599544160513,6.929016155009538
-8.231536454087227,0.7979450075993391,7.994889705710609,6.748319630691092
-8.223557004011234,0.697579429013368,8.06237290201752,6.567270414351183
-8.2165812097211,0.5967397860031698,8.128045606161033,6.389588350476908
-8.21061381186107,0.4980117226754311,8.191941489665801,6.21797723822403
