th1 (rad),w1 (rad/s),th2 (rad),w2 (rad/s)
6.04838307566375,0.03837437279771469,6.125935602124357,2.8348950999039246
6.0487668193917274,0.07468255632562776,6.154284553123396,2.81404194588735
6.049513644954984,0.11557419005664593,6.182424972582269,2.785969191488256
6.05066938685555,0.16069813372791913,6.210284664497151,2.7510833394248717
6.052276368192829,0.20964769327442406,6.2377954978914,2.7098528945832854
6.054372845125573,0.26197873226827184,6.264894026837233,2.6627854248025624
6.056992632448256,0.3172272763559317,6.2915218810852584,2.610405674247146
6.060164905211815,0.3749253945565335,6.31762593782773,2.5532362774280677
6.06391415915738,0.4346145529526366,6.343158300602011,2.4917820585812414
6.068260304686906,0.4958560546943184,6.368076121187823,2.426518338494167
6.07321886523385,0.558238538446264,6.392341304572764,2.3578831973256706
6.078801250618312,0.6213827694821258,6.4159201365460214,2.2862733031929423
6.085015078313133,0.6849441160849733,6.438782869577951,2.212042719502417
6.091864519473983,0.7486131711937226,6.460903296772975,2.135504029957837
6.099350651185921,0.8121149778478092,6.482258337072554,2.056931136870757
6.107471800964398,0.875207271401545,6.5028276484412615,1.9765631619465531
6.116223873678414,0.9376780830696899,6.522593280060727,1.8946089800995531
6.12560065450911,0.999342974135888,6.541539369861723,1.8112520247126753
6.135594084250469,1.0600420985330181,6.559651890108849,1.7266551035181277
6.146194505235799,1.1196372292125192,6.576918441144031,1.6409650507757418
6.1573908775279245,1.178008833049967,6.593328091651788,1.554317111100739
6.169170965858424,1.2350532400785406,6.608871262762795,1.4668390034562961
6.181521498259209,1.2906799244838618,6.6235396527973585,1.3786546523107246
6.194428297504047,1.3448088954098132,6.637326199320466,1.2898875991723155
6.207876386458145,1.397368183530843,6.650225075312189,1.2006641240553282
6.221850068293453,1.4482914030459506,6.662231716552743,1.1111161149704174
6.236332982323913,1.4975153670518833,6.673342877702447,1.0213837258816714
6.251308135994432,1.5449777363048383,6.683556714961263,0.9316178608512107
6.26675791335748,1.5906146866503876,6.692872893569775,0.8419825149693739
6.282664060223984,1.6343585886389018,6.701292718719468,0.7526569914308391
6.299007646110373,1.6761357040145266,6.7088192886337765,0.6638379987639033
6.3157690031505185,1.7158639179742123,6.715457668621416,0.5757416125795078
6.332927642330261,1.753450543480182,6.721215084747211,0.48860506208151144
6.350462147765063,1.788790254518277,6.726101135368026,0.4026882729374365
6.368350050310245,1.8217632287988677,6.730128018097401,0.3182750653247009
6.386567682598234,1.8522336062801446,6.7333107687506475,0.23567387012936222
6.405090018661036,1.8800483965921422,6.735667507451941,0.15521778954050586
6.423890502626957,1.9050369934713036,6.7372196853473465,0.07726379425331656
6.44294087256167,1.9270114739476503,6.7379923232898795,0.0021908235180254365
6.462210987301146,1.9457678691817601,6.73801423152506,-0.06960345643565366
6.481668665992964,1.9610885862756833,6.737318196960704,-0.1377074667021742
6.5012795518557205,1.9727461292560187,6.735941122293682,-0.20170228687385378
6.521007013148281,1.9805082065185493,6.733924099424944,-0.2611700781135497
6.540812095213466,1.9841442174784236,6.731312398643809,-0.315704316833261
6.560653537388251,1.9834329837529583,6.728155355475476,-0.36492161576115284
6.58048786722578,1.9781714375503665,6.724506139317865,-0.4084746930682616
6.6002695816012835,1.9681838180327587,6.720421392387182,-0.44606582317137755
6.619951419781611,1.953330779335301,6.715960734155469,-0.47745989940877454
6.639484727574963,1.9335177109441164,6.711186135161381,-0.5024961007236098
6.658819904684404,1.908701541083119,6.706161174154145,-0.521097122474492
6.677906920095236,1.878895357337911,6.7009502029294,-0.5332750342704113
6.696695873668615,1.8441703410059285,6.695617452586696,-0.5391330714371884
6.715137577078674,1.80465475737748,6.690226121872324,-0.5388630284454948
6.733184124652449,1.760530038495556,6.684837491587869,-0.5327383515580802
6.7507894250374045,1.7120242902527723,6.6795101080722885,-0.5211034552250077
6.767909667939932,1.6594038027094324,6.6742990735200385,-0.5043601416284852
6.784503705967026,1.6029633025533059,6.669255472103754,-0.48295223000131826
6.800533338992559,1.5430157404485154,6.664425949803741,-0.4573495748681198
6.815963496397044,1.4798823568098953,6.65985245405506,-0.4280325753963803
6.830762319965143,1.4138836393535292,6.655572128301096,-0.3954780839325954
6.844901156358678,1.3453316076272963,6.65161734746177,-0.36014735853355884
6.858354472434951,1.2745236683847163,6.648015873876434,-0.32247642230330004
6.871099709118798,1.201738110129947,6.644791109653402,-0.2828689336375283
6.8831170902200975,1.1272311644607371,6.641962420317026,-0.24169146365750954
6.8943894018647045,1.0512354642972432,6.639545505680451,-0.1992709323051249
6.904901756507677,0.9739596741442077,6.6375527963574,-0.15589387202168908
6.914641353249118,0.8955890487677721,6.635993857637183,-0.11180715839226107
6.923597243736796,0.8162866848875477,6.63487578605326,-0.06721985731403807
6.931760110585672,0.736195256185816,6.63420358748012,-0.02230587435342883
6.93912206314753,0.6554390568456987,6.633980528736585,0.022792858052409354
6.945676453715987,0.5741262166148547,6.63420845731711,0.06796286527922876
6.951417715882136,0.4923509867520302,6.6348880859699015,0.11311544390325595
6.956341225749656,0.4101960286224432,6.636019240408934,0.1581829131672496
6.960443186035881,0.32773466398870565,6.637601069540606,0.2031148737184314
6.963720532675768,0.24503306793946034,6.63963221827779,0.24787451034526914
6.9661708633551624,0.16215240219413732,6.642110963381243,0.29243495033759886
6.967792387377104,0.07915089875888616,6.645035312884619,0.33677567062200825
6.968583896364692,-0.003914087825529572,6.648403069590839,0.3808789341629513
6.9685447554864375,-0.08698403660480657,6.652211858932469,0.4247262285626823
6.96767491512039,-0.16999719999418753,6.656459121218095,0.46829467686462434
6.965974943120448,-0.2528865038523472,6.6611420679867415,0.5115533920876508
6.963446078081924,-0.33557738891490696,6.666257601907618,0.5544597531395873
6.960090304192775,-0.41798558252358886,6.671802199439013,0.5969555909418264
6.955910448367539,-0.5000148013967544,6.677771755348432,0.638963290584638
6.950910300353572,-0.5815544025845399,6.684161388254278,0.6803818390530465
6.945094756327726,-0.6624770214011455,6.690965206644808,0.7210828794731073
6.938469986113715,-0.7426362625329426,6.698176035439539,0.7609068726583271
6.931043623488385,-0.8218645437635403,6.7057851041661225,0.7996595151078417
6.92282497805075,-0.8999712301225578,6.713781699317201,0.8371086185080886
6.913825265749525,-0.9767412377843382,6.722152785502281,0.8729817164030516
6.904057853371682,-1.0519343279761133,6.730882602666312,0.9069647236667833
6.89353851009192,-1.1252853455307967,6.73995224990298,0.9387020251677837
6.882285656636612,-1.196505676117245,6.749339270154658,0.9677983994548629
6.8703205998754395,-1.2652861900298147,6.759017254149207,0.9938231761884302
6.857667737975142,-1.331301897136903,6.768955485911091,1.0163169656364888
6.844354719003773,-1.394218446827622,6.779118655567456,1.0348011697619468
6.830412534535497,-1.4537004628360066,6.789466667265075,1.0487902786534737
6.815875529907137,-1.509421508678086,6.79995457005161,1.0578066770781989
6.800781314820356,-1.56107525061995,6.8105326368223915,1.0613973553436722
6.785170562314157,-1.6083871513554768,6.821146610375828,1.059151578432173
6.769086690800602,-1.651125830783603,6.8317381261601495,1.0507182770413672
6.752575432492766,-1.689113117290976,6.842245308930563,1.0358217508070475
6.735684301319856,-1.7222318239822743,6.852603526438633,1.0142742757956746
6.718461983080034,-1.7504304397011528,6.86274626919659,0.9859844158191293
6.7009576786830225,-1.7737242147913834,6.872606113354781,0.9509602384084073
6.683220436535109,-1.7921925044623237,6.882115715738865,0.9093071736973042
6.6652985114904855,-1.8059726422633968,6.891208787475838,0.8612208354730843
6.647238785067851,-1.8152509788794011,6.899820995830569,0.8069756440776958
6.629086275279057,-1.8202519755225544,6.907890752271346,0.7469104624502569
6.610883755523832,-1.8212263522257797,6.915359856895848,0.6814126290097132
6.592671492001575,-1.8184392582647768,6.922173983185945,0.6109017406480796
6.574487099418927,-1.8121592825962987,6.928283000592426,0.5358143431641897
6.556365506592964,-1.8026489016079008,6.933641144024068,0.4565903870820075
6.5383390175768845,-1.7901567179368538,6.938207047894888,0.37366197137600227
6.520437450397516,-1.7749116179713011,6.941943667608649,0.2874445830191858
6.502688334217803,-1.7571187931602843,6.94481811343884,0.19833078400413512
6.4851171462862,-1.7369574427563206,6.946801421278882,0.10668611632813729
6.467747571858637,-1.7145799022826171,6.947868282442164,0.012846889122313632
6.450601772835811,-1.6901119143113001,6.9479967513333865,-0.08288053059024034
6.433700653692698,-1.663653764094367,6.947167946027484,-0.18021929731784142
6.417064116051755,-1.6352820300880087,6.945365753054306,-0.27892087504332336
6.400711295750875,-1.6050517381342952,6.942576544303873,-0.37876332007079677
6.384660778369532,-1.5729987502987481,6.938788911103165,-0.47954928749258363
6.3689307908665445,-1.5391422600216356,6.93399341822824,-0.5811039337925517
6.353539368266328,-1.5034873014582564,6.928182378890314,-0.6832728374947552
6.338504495251746,-1.466027211450564,6.921349650515367,-0.7859200165819443
6.3238442231372405,-1.4267460073925236,6.913490450349547,-0.8889260859273206
6.3095767630633155,-1.3856206638899884,6.904601189490275,-0.9921865695524686
6.295720556424415,-1.3426232864706777,6.89467932379475,-1.0956103600136213
6.282294323559708,-1.2977231926829917,6.883723220194614,-1.199118299319822
6.269317091632878,-1.250888920728445,6.871732037201416,-1.302641841197568
6.256808202425594,-1.2020901942089672,6.858705618789441,-1.4061217420353604
6.244787300483504,-1.1512998794263134,6.844644401369087,-1.509506716409306
6.233274301689241,-1.0984959796052045,6.8295493342049935,-1.6127519818058118
6.222289341893189,-1.0436637189454643,6.813421814386936,-1.715817605282725
6.211852704703735,-0.9867977789080028,6.796263638334108,-1.8186665517928493
6.201984726914655,-0.9279047597805852,6.778076972816179,-1.92126231941085
6.192705679316849,-0.8670059522652881,6.758864349622071,-2.023566030756969
6.184035619794196,-0.804140516110523,6.738628689314501,-2.125532832985986
6.175994214633091,-0.7393691746326171,6.717373360984641,-2.2271074420408516
6.168600522886765,-0.6727785434345201,6.695102286564232,-2.3282186528265223
6.16187273745242,-0.6044862155782762,6.671820100035967,-2.428772629597236
6.155827875296637,-0.5346467189750238,6.647532373739995,-2.5286447966468937
6.150481408106887,-0.4634584374923204,6.622245925773527,-2.6276701781389473
6.145846823731964,-0.39117153487086515,6.595969223992137,-2.725632101656632
6.141935108383255,-0.31809682613485996,6.56871290297557,-2.8222493017970924
6.138754140121907,-0.2446153876370037,6.5404904099576,-2.9171616616828215
6.136307986245536,-0.1711884654102707,6.511318793340771,-3.009915138190916
6.134596101591433,-0.09836691588690576,6.4812196419588615,-3.0999468547496036
6.133612432432564,-0.026798987990955134,6.450220173411365,-3.1865719233981835
6.133344442552654,0.042765249447305725,6.418354454177384,-3.2689742522102363
6.133772095047127,0.10947505263304973,6.385664711655282,-3.3462043224459297
6.134866845573457,0.17238834756340599,6.352202668430822,-3.417187510476526
6.136590729049091,0.23049199430510536,6.318030793326057,-3.48074670447232
6.1388956489921425,0.2827351976303249,6.283223326281333,-3.5356423597064874
6.141723000968446,0.32807695045911006,6.247866902684268,-3.580631386639288
6.1450037704730365,0.3655460846706603,6.2120605888178755,-3.61454319435356
6.148659231319743,0.3943094122497366,6.17591515687434,-3.6363670670093646
6.15260232544224,0.4137402131148864,6.139551486204247,-3.64534069778089
6.156739727573389,0.4234770221784739,6.103098079226438,-3.6410265733286553
6.1609744977951735,0.42346243289841046,6.066687813493151,-3.6233625457375798
6.165209122124158,0.41395414154322296,6.030454188035775,-3.592676262403924
6.16934866353959,0.39550539481947067,5.994527425411736,-3.549659725223574
6.1733037174877845,0.3689179964822688,5.9590308281595,-3.495308251587676
6.176992897452608,0.33517616061579875,5.924077745643624,-3.430834922391708
6.180344659058766,0.2953722015076704,5.889769396419707,-3.357575121522909
6.183298381073842,0.25063479603333205,5.856193645204478,-3.2768953152814806
6.185804729034175,0.2020679525263985,5.823424692051663,-3.1901166417786606
6.18782540855944,0.15070513303550298,5.791523525633877,-3.098458902276985
6.189332459889795,0.09747945683639207,5.760538936611106,-3.0030058565094273
6.190307254458159,0.04320835231285677,5.730508878046012,-2.9046893672774576
6.190739337981288,-0.011410349406453052,5.701461984373237,-2.804288196865846
6.190625234487223,-0.06579424806537493,5.673419102404579,-2.702436868460804
6.189967292006569,-0.11946720374571372,5.646394733719971,-2.599640486086223
6.188772619969113,-0.17204761028428678,5.620398328859109,-2.4962922906622116
6.18705214386627,-0.2232358703135685,5.595435405952487,-2.3926916835266545
6.184819785163134,-0.2728022124382433,5.57150848911722,-2.2890612854202343
6.182091763038751,-0.32057550607995167,5.548617876263018,-2.1855622458657935
6.178886007977952,-0.36643338307832923,5.5267622538043595,-2.082307472138396
6.175221674147169,-0.41029374768377064,5.505939179082976,-1.9793727389627591
6.171118736670331,-0.45210762016466527,5.486145451693348,-1.8768058098201288
6.1665976604686845,-0.4918531869175608,5.467377393595147,-1.7746337859022445
6.161679128599509,-0.5295308996420381,5.449631055736124,-1.6728689295257055
6.1563838196030884,-0.5651594614437396,5.432902366440867,-1.5715132072762363
6.150732224988651,-0.5987725473339689,5.417187234368105,-1.4705617792920673
6.144744499515312,-0.6304161231230196,5.402481616575184,-1.3700056345092966
6.138440338284082,-0.6601462456186843,5.388781560230091,-1.2698335431325363
6.131838875827895,-0.6880272457317682,5.376083224798765,-1.1700334702510526
6.124958603370577,-0.7141302131931534,5.3643828900962545,-1.0705935699589442
6.117817301238645,-0.7385317165052416,5.353676954396665,-0.9715028581462797
6.110431984073593,-0.7613127043349402,5.3439619258152025,-0.8727516443451405
6.102818857030243,-0.7825575448987668,5.335234409371751,-0.7743317883971435
6.094993281581256,-0.8023531682027264,5.32749109148778,-0.6762368358939939
6.086969749899229,-0.8207882825323621,5.32072872312884,-0.5784620769385426
6.078761867073905,-0.837952641595115,5.314944102359455,-0.4810045654097664
6.070382340657954,-0.8539363424317291,5.310134056705357,-0.38386313026285035
6.061842977233637,-0.8688291368418329,5.306295425402729,-0.2870384061765085
6.053154685865218,-0.8827197407876404,5.303425041340963,-0.19053290784301632
6.044327488457342,-0.8956951271990515,5.301519712262533,-0.09435117019256832
6.035370537185352,-0.9078397879320954,5.300576200560608,0.0015000243050246331
6.0262921393060305,-0.9192349504451433,5.300591200803658,0.09701131054804818
6.017099789801579,-0.9299577341622282,5.301561313909138,0.1921702770455282
6.007800212459957,-0.940080230603021,5.303483016679594,0.28696085200180366
5.998399410153927,-0.9496684903040479,5.306352625199612,0.3813625168309306
5.988902725250886,-0.9587813984969112,5.310166250367921,0.4753493236696607
5.979314911265917,-0.9674694206584606,5.314919743604618,0.5688886926083015
5.969640217059333,-0.975773198690343,5.3206086305307005,0.6619399640491956
5.95988248507243,-0.9837219790072099,5.3272280301711925,0.7544526823404964
5.950045265282357,-0.9913318557320222,5.334772556994597,0.8463645893060342
5.940131946725037,-0.9986038161961213,5.343236202887658,0.9375993114131518
5.930145908563076,-1.0055215828983948,5.35261219600179,1.0280637332688014
5.9200906927340915,-1.0120492570817425,5.362892833334477,1.1176450643813673
5.909970200163274,-1.0181287854290735,5.374069283978291,1.2062076274244313
5.899788912308983,-1.023677294501258,5.386131360252535,1.2935894265440362
5.88955213936397,-1.0285843688705971,5.399067254517975,1.3795985955266046
5.879266295675264,-1.0327093896065198,5.412863240473241,1.4640098794950882
5.868939201779199,-1.0358791002830905,5.427503339268192,1.5465613708619321
5.8585804107763675,-1.0378856270464119,5.442968952976812,1.626951799297318
5.848201554505903,-1.0384852442633257,5.459238470969785,1.7048387621315026
5.83781670206327,-1.0373982412921845,5.4762868585911,1.779838367032034
5.827442719650348,-1.0343102980554701,5.494085242261421,1.8515268282167967
5.817099616669793,-1.0288758015586894,5.512600510543589,1.9194445894902512
5.806810858654206,-1.0207235121741134,5.531794956438492,1.9831035147703373
5.796603623532465,-1.0094648953935743,5.551625991586195,2.0419975597477866
5.786508974578529,-0.9947052529836168,5.572045967183673,2.09561709149847
5.7765619220486935,-0.976057508985439,5.593002138098657,2.143466645748816
5.7668013469588395,-0.9531581427153036,5.614436804556146,2.185085421002001
5.757269765531687,-0.9256843525333808,5.636287658766165,2.2200692597848963
5.748012922006353,-0.8933711500428185,5.6584883513640145,2.248092355188998
5.739079210505925,-0.8560268150982269,5.680969274915904,2.268926569364635
5.7305189423549425,-0.8135450783164832,5.703658540609551,2.2824561827724645
5.722383491571778,-0.7659126009534416,5.7264831024372755,2.288686190308241
5.714724365562243,-0.7132107952872122,5.7493699643403575,2.287742923943728
5.707592257609371,-0.6556117034792706,5.772247393579795,2.2798667136236124
5.701036140574579,-0.5933683998819175,5.795046060716031,2.265397318591937
5.69510245657576,-0.5268010460887897,5.81770003390195,2.2447537568751486
5.6898344461148715,-0.456280176484269,5.840147571470702,2.218410750297687
5.685271644350029,-0.3822089524006937,5.862331678973678,2.186874191027
5.681449554826021,-0.30500599968556263,5.884200420883948,2.15065783454177
5.678399494829166,-0.22509010677813984,5.905706999229365,2.110262933109547
5.6761485937613845,-0.14286761164244355,5.926809628560461,2.066161888665436
5.67471991764496,-0.05872284900137195,5.947471247447115,2.018786367006956
5.674132689154946,0.026988358618567146,5.967659111117185,1.968519781676746
5.674402572741132,0.11394246060436906,5.987344308933952,1.9156936798969235
5.6755419973471755,0.20184964410197037,6.006501245732921,1.8605873520503826
5.677560493788195,0.2904535205620265,6.025107119253425,1.8034299164356218
5.680465028993815,0.3795295320796104,6.043141418417782,1.7444041634745935
5.684260324314612,0.46888251494208044,6.060585460052527,1.68365153788054
5.688949149464032,0.558343774121603,6.077421975431332,1.6212777596743295
5.694532587205249,0.6477679343115955,6.093634753028075,1.5573587111966032
5.701010266548365,0.7370297513931097,6.109208340140041,1.4919463326748374
5.7083805640622955,0.8260209984010204,6.12412780346679,1.4250743663307182
5.716640774046306,0.91464748382168,6.138378547130097,1.356763866565289
5.725787248884523,1.0028262167715714,6.15194618579575,1.2870284526819258
5.735815511052239,1.0904827015079626,6.164816470322569,1.2158793236601024
5.746720338067319,1.177548320672362,6.176975263559171,1.1433300848559662
5.7584958212740425,1.2639577506529802,6.18840856440773,1.0694014571124277
5.771135398780572,1.349646341854598,6.199102578978854,0.994125951932796
5.784631862199118,1.4345473903986588,6.209043838498182,0.9175526036315669
5.798977336103105,1.518589225366985,6.218219364534498,0.8397518513554955
5.814163228356775,1.6016920373336567,6.226616883048053,0.7608206602421055
5.830180148730111,1.6837643804995668,6.234225089650474,0.6808879604005285
5.847017792535107,1.764699293925667,6.241033969254479,0.6001204624082886
5.864664785474364,1.8443700096519202,6.247035173878562,0.5187288750021477
5.883108485570883,1.9226252502129493,6.252222462628583,0.43697449984078146
5.902334738073012,1.9992841692389782,6.256592207626991,0.3551761039314386
