th1 (rad),w1 (rad/s),th2 (rad),w2 (rad/s),a1 (rad/s^2),a2 (rad/s^2)
1.9365924648131387,-3.089234603382388,0.016288974224094806,-2.3806050388443896,-10.947963585707065,5.057804736676747
1.9057001187793148,-3.1987142392394583,-0.007517076164349091,-2.330026991477622,-10.790308006580009,6.088385097185024
1.8737129763869202,-3.3066173193052584,-0.03081734607912531,-2.2691431405057716,-10.61430119010631,7.155459426781487
1.8406468031938676,-3.4127603312063215,-0.05350877748418303,-2.1975885462379567,-10.423305536878143,8.255405592456343
1.8065191998818044,-3.516993386575103,-0.0754846629465626,-2.1150344903133935,-10.221469101157407,9.384227596485163
1.7713492660160535,-3.619208077586677,-0.09663500784969653,-2.0211922143485417,-10.013757103291509,10.537665843292777
1.7351571852401868,-3.7193456486195924,-0.11684692999318194,-1.9158155559156138,-9.80597365891678,11.71134361812434
1.6979637287539908,-3.8174053852087604,-0.1360050855523381,-1.7987021197343704,-9.604773965796413,12.900952572130771
1.6597896749019032,-3.9134531248667246,-0.1539921067496818,-1.6696925940130627,-9.417668451074647,14.102479077432758
1.620655143653236,-4.007629809377471,-0.17068903268981245,-1.528667803238735,-9.253022003110702,15.312472249029975
1.5805788455594612,-4.1001600294085785,-0.1859757107221998,-1.3755430807484352,-9.120053372729632,16.52835337386166
1.5395772452653753,-4.191360563135875,-0.19973114152968413,-1.2102595470098185,-9.028842071273688,17.748765639643935
1.4976636396340166,-4.281648983848612,-0.2118337369997823,-1.0327718906133792,-8.990352519838426,18.973962646741597
1.4548471497955304,-4.371552509046996,-0.2221614559059161,-0.8430322641459631,-9.016487675258436,20.206234429860633
1.4111316247050605,-4.46171738579958,-0.23059177854737573,-0.6409699198473567,-9.120186679238698,21.45037073413684
1.3665144508470646,-4.552919252591967,-0.2370014777458493,-0.4264662125059884,-9.315582960419599,22.71416298135213
1.320985258321145,-4.646075082196163,-0.24126613987090917,-0.19932458269246708,-9.61824018403733,24.008948185607412
1.2745245074991833,-4.742257484036537,-0.24325938569783384,0.04076489916360704,-10.045482581046807,25.350198663607376
1.227101932658818,-4.842712309847005,-0.24285173670619778,0.2942668857996808,-10.616831659241406,26.7581577961621
1.1786748095603479,-4.9488806264394185,-0.23990906784820099,0.5618484637613018,-11.354549297957451,28.258508378535787
1.1291860032959538,-5.062426119418993,-0.23429058321058796,0.8444335475466597,-12.284259873537717,29.883024345257095
1.078561742101764,-5.18526871815437,-0.22584624773512135,1.1432637909992307,-13.435565114092748,31.67007507119555
1.0267090549202202,-5.319624369295298,-0.21441360982512905,1.4599645417111862,-14.84244156147021,33.66467623927615
0.9735128112272673,-5.46804878491,-0.1998139644080172,1.7966113041039478,-16.542954029675588,35.9174162096423
0.9188323233781673,-5.633478325206756,-0.1818478513669777,2.1557854662003706,-18.577292459784573,38.4808390668188
0.8624975401260998,-5.819251249804601,-0.16028999670497399,2.5405938568685587,-20.982073445396434,41.40035525777794
0.8043050276280538,-6.029071984258565,-0.1348840581362884,2.954597409446338,-23.776730317465695,44.69376319743082
0.7440143077854682,-6.266839287433222,-0.10533808404182501,3.401535041420646,-26.933783659279783,48.30779864936175
0.6813459149111359,-6.53617712402602,-0.07132273362761855,3.8846130279142637,-30.317803219929758,52.03036235046275
0.6159841436708757,-6.839355156225317,-0.032476603348475915,4.404916651418891,-33.56854850972781,55.32414913152481
0.5475905921086226,-7.175040641322596,0.011572563165713,4.958158142734139,-35.90232518896634,57.045890221287884
0.47584018569539666,-7.534063893212259,0.06115414459305439,5.528617044947018,-35.855986850633535,55.08760415201518
0.40049954676327404,-7.892623761718594,0.11644031504252458,6.07949308646717,-31.213784838198162,46.282413967279446
0.32157330914608806,-8.204761610100576,0.17723524590719628,6.542317226139964,-19.813670653849083,27.56267148388526
0.2395256930450823,-8.402898316639067,0.2426584181685959,6.817943940978817,-1.9283316794666034,-0.6476583282427892
0.15549670987869163,-8.422181633433734,0.31083785757838406,6.811467357696389,17.52697945273512,-31.28790057729929
0.07127489354435429,-8.246911838906383,0.37895253115534794,6.498588351923397,31.582311323708986,-54.32171223970537
-0.011194224844709541,-7.9310887256692935,0.4439384146745819,5.955371229526343,37.23189481289864,-65.30151076797573
-0.09050511210140248,-7.5587697775403075,0.5034921269698454,5.302356121846586,36.49380221845218,-66.94836383899529
-0.16609280987680555,-7.193831755355785,0.5565156881883112,4.632872483456633,32.691529557816686,-63.92335912368267
-0.23803112743036342,-6.866916459777618,0.6028444130228775,3.9936388922198063,28.060725080392398,-59.408517563942645
-0.3067002920281396,-6.586309208973694,0.6427808019450756,3.39955371658038,23.638032604430034,-54.906604851102664
-0.37256338411787654,-6.349928882929394,0.6767763391108794,2.8504876680693534,19.781156903084373,-50.954067858538096
-0.4360626729471705,-6.15211731389855,0.705281215791573,2.3409469894839723,16.55185743955696,-47.65624471576824
-0.497583846086156,-5.9865987395029805,0.7286906856864127,1.86438454232629,13.905202642054173,-44.955528844713136
-0.5574498334811858,-5.847546713082439,0.7473345311096756,1.4148292538791585,11.768740007275364,-42.74586028096483
-0.6159253006120102,-5.729859313009685,0.7614828236484672,0.9873706510695102,10.071766141563147,-40.91686863996719
-0.6732238937421071,-5.629141651594054,0.7713565301591623,0.5782019646698382,8.754118290658026,-39.36881521617344
-0.7295153102580476,-5.541600468687474,0.7771385498058606,0.18451381250810384,7.767161046106656,-38.016222222509235
-0.7849313149449223,-5.463928858226407,0.7789836879309416,-0.19564840971698855,7.072121762595826,-36.78753105418581
-0.8395706035271864,-5.393207640600449,0.7770272038337718,-0.5635237202588467,6.637782976226933,-35.623667863485935
-0.8935026799331909,-5.32682981083818,0.7713919666311833,-0.919760398893706,6.43826962558595,-34.476560102808236
-0.9467709780415727,-5.26244711458232,0.7621943626422462,-1.2645259999217884,6.451170835061701,-33.30791029900934
-0.999395449187396,-5.197935406231704,0.7495491026430283,-1.5976051029118818,6.656049043985457,-32.08824921839968
-1.051374803249713,-5.131374915791849,0.7335730516139095,-1.9184875950958786,7.033323782571333,-30.79619371422349
-1.1026885524076315,-5.061041677966135,0.7143881756629508,-2.2264495322381137,7.5634965150744735,-29.417815216839625
-1.1532989691872928,-4.98540671281539,0.6921236803405696,-2.52062768440651,8.226676481323763,-27.946037245456477
-1.2031530363154468,-4.903139948002153,0.6669174034965045,-2.8000880568610746,9.002364585402924,-26.380004562368686
-1.2521844357954683,-4.813116302148123,0.6389165229278938,-3.0638881024847615,9.869450290039458,-24.724393147621637
-1.3003155988169497,-4.714421799247729,0.6082776419030462,-3.3111320339609778,10.806375327012727,-22.988653944238887
-1.347459816809427,-4.6063580459776015,0.5751663215634365,-3.541018573403367,11.791418659363291,-21.186201500072585
-1.393523397269203,-4.488443859383969,0.5397561358294028,-3.7528805884040928,12.803060025561052,-19.33357004025638
-1.4384078358630425,-4.360413259128358,0.5022273299453619,-3.9462162888066565,13.820384385174187,-17.44956435707508
-1.482011968454326,-4.222209415276616,0.4627651670572953,-4.120711932377407,14.823495908054648,-15.554432493792804
-1.5242340626070923,-4.07397445619607,0.42155804773352124,-4.276256257315335,15.793916760738446,-13.669083436789503
-1.5649738071690529,-3.9160352885886853,0.3787954851603679,-4.412947091683231,16.71495188392972,-11.81436790838204
-1.6041341600549397,-3.7488857697493883,0.3346660142435356,-4.531090770767051,17.572005633905324,-10.010435468274487
-1.6416230177524336,-3.573165713410335,0.2893551065358651,-4.631195125449795,18.352839487272508,-8.276177395537358
-1.677354674886537,-3.38963731853761,0.24304315528136716,-4.713956899405169,19.04776234004815,-6.628762405846784
-1.711251048071913,-3.1991596951371286,0.19590358628731547,-4.780244523463637,19.649746888376768,-5.0832707499579675
-1.7432426450232843,-3.002662226253361,0.1481011410526791,-4.831077230963216,20.154467797233984,-3.6524309373859323
-1.773269267285818,-2.801117548281021,0.09979036874304695,-4.867601540337075,20.560260281055417,-2.3464615551574823
-1.8012804427686282,-2.595514945470467,0.0511143533396762,-4.89106615588865,20.868001438194717,-1.1730179935144436
-1.8272355922233328,-2.3868349310885195,0.0022036917807896975,-4.902796335823794,21.080920950714063,-0.1372403217610611
-1.8511039415342179,-2.1760257215813787,-0.04682427157744824,-4.904168739041404,21.204352071726714,0.758105582782694
-1.8728641987500316,-1.9639822008641117,-0.09586595896786229,-4.8965876832135775,21.245437556378597,1.5124056817591107
-1.8925040207586727,-1.7515278253003257,-0.14483183579999806,-4.881463626395987,21.21280779152982,2.126909708321845
-1.910019299011676,-1.5393997473850276,-0.19364647206395794,-4.860194529312769,21.116249477546884,2.604395188299161
-1.9254132964855262,-1.3282372526095587,-0.24224841735708563,-4.834150577429777,20.96638270721106,2.9488021505591875
-1.9386956690116217,-1.118573425537448,-0.29058992313138343,-4.804662555924185,20.774362320225002,3.164856395439757
-1.9498814032669962,-0.910829802335198,-0.3386365486906253,-4.773013991969788,20.55161632699622,3.257697151173568
-1.958989701290348,-0.7053136390652357,-0.3863666886103232,-4.740437020458052,20.30963042621926,3.232522013757908
-1.9660428376810004,-0.5022173348030431,-0.43377105881490374,-4.708111800320473,20.059783611448662,3.0942587547093345
-1.9710650110290309,-0.3016194986885565,-0.4808521768181085,-4.6771692127733795,19.81323589621091,2.8472704500437223
-1.9740812060159165,-0.10348713972644738,-0.5276238689458423,-4.648696508272942,19.580865440070582,2.495097990814656
-1.975116077413181,0.09232151467425845,-0.5741108340285718,-4.623745528364796,19.37324876468016,2.040242953743041
-1.9741928622664384,0.28605400232106004,-0.6203482893122197,-4.603343098827366,19.200673978079504,1.4839947003520388
-1.9713323222432277,0.4780607421018551,-0.6663817203004934,-4.588503151823845,19.07317231381475,0.8263093261607911
-1.9665517148222091,0.6687924652400026,-0.7122667518187318,-4.580240058562238,19.000546726841016,0.06575605634087008
-1.959863790169809,0.8587979325084127,-0.7580691524043541,-4.579582497998829,18.99236600610838,-0.8004389306630156
-1.951275810844725,1.0487215925694966,-0.8038649773843424,-4.587586887305459,19.057876110376164,-1.7761969142090652
-1.94078859491903,1.2393003536732583,-0.849740846257397,-4.6053488564475495,19.205752957610375,-2.866144908473347
-1.9283955913822974,1.431357883249362,-0.8957943348218724,-4.634010305532283,19.44357628116225,-4.074768888806576
-1.914082012549804,1.6257936460609845,-0.9421344378771953,-4.674757994420348,19.77683319503254,-5.404901069497449
-1.897824076089194,1.82356197801131,-0.9888820178213988,-4.728807005115323,20.207150963057895,-6.855124102333517
-1.879588456309081,2.0256334876418887,-1.0361700878725522,-4.797358246138658,20.729299996298902,-8.415448343083066
-1.8593321214326621,2.2329264876048778,-1.0841436703339387,-4.881512729569488,21.326302171342732,-10.060322573280233
-1.8370028565566134,2.4461895093183053,-1.1329587976296336,-4.982115955302291,21.961776155659123,-11.737741966498385
-1.8125409614634305,2.6658072708748963,-1.1827799571826565,-5.099493374967275,22.568633625747236,-13.353173815066292
-1.7858828887546816,2.891493607132369,-1.2337748909323292,-5.233025113117938,23.033896971159038,-14.747914994695744
-1.756967952683358,3.121832576843959,-1.2861051420635086,-5.380504263064895,23.18179149697629,-15.674801473364003
-1.7257496269149184,3.353650491813722,-1.3399101846941575,-5.537252277798536,22.763057636436294,-15.78228683518402
-1.692213121996781,3.581281068178085,-1.3952827074721428,-5.695075146150376,21.468742954858257,-14.632396925978686
-1.6564003113150003,3.7959684977266677,-1.4522334589336465,-5.841399115410163,18.997312443555224,-11.793063483155874
-1.6184406263377336,3.98594162216222,-1.5106474500877483,-5.9593297502417215,15.196436927915219,-7.0352325209796325
-1.5785812101161114,4.1379059914413725,-1.5702407475901654,-6.029682075451518,10.24506801160632,-0.5875191478918335
-1.5372021502016977,4.240356671557436,-1.6305375683446806,-6.035557266930437,4.744210808997215,6.734749350424692
-1.4947985834861233,4.2877987796474075,-1.690893141013985,-5.96820977342619,-0.43659155232160785,13.739815487210189
-1.4519205956896493,4.283432864124191,-1.7505752387482467,-5.830811618554088,-4.524897992067956,19.36520915307338
-1.4090862670484074,4.2381838842035116,-1.8088833549337875,-5.637159527023353,-7.153421960292795,23.10430802184327
-1.3667044282063723,4.166649664600584,-1.865254950204021,-5.406116446804921,-8.390431612058707,25.048521115910102
-1.3250379315603664,4.082745348479997,-1.9193161146720703,-5.15563123564582,-8.554410610923812,25.63164516851379
-1.2842104780755665,3.997201242370759,-1.9708724270285285,-4.899314783960682,-8.010916437296574,25.350639258092112
-1.244238465651859,3.9170920779977934,-2.019865574868135,-4.64580839137976,-7.060289768787443,24.612308690184815
-1.205067544871881,3.846489180309919,-2.0663236587819327,-4.399685304477912,-5.909765855828542,23.696121484104538
-1.1666026530687819,3.7873915217516334,-2.110320511826712,-4.162724089636867,-4.686936494843487,22.77340642420724
-1.1287287378512656,3.7405221568031983,-2.1519477527230806,-3.9349900253947943,-3.4633901048873286,21.940040335410735
-1.0913235162832335,3.705888255754325,-2.1912976529770285,-3.715589622040687,-2.2752922251051335,21.24460062168003
-1.0542646337256902,3.683135333503274,-2.2284535491974355,-3.5031436158238867,-1.1379129369577548,20.708035021793105
-1.0174332803906574,3.6717562041336964,-2.2634849853556744,-3.2960632656059556,-0.05491159498690334,20.336062557531484
-0.9807157183493205,3.6712070881838272,-2.296445618011734,-3.092702640030641,0.9760440533125946,20.12651708812607
-0.9440036474674822,3.680967528716953,-2.3273726444120406,-2.8914374691493805,1.9599845333252401,20.073485564170543
-0.9071939721803127,3.7005673740502054,-2.3562870191035343,-2.6907026135076753,2.902743972224715,20.16951012673221
-0.8701882984398107,3.7295948137724526,-2.383194045238611,-2.489007512240353,3.8098773952444565,20.40664988034314
-0.8328923503020862,3.767693587724897,-2.4080841203610146,-2.2849410134369217,4.686035685551391,20.776878924678677
-0.7952154144248372,3.814553944580411,-2.4309335304953836,-2.077172224190135,5.534590478334284,21.272099177588423
-0.7570698749790331,3.8698998493637538,-2.451705252737285,-1.8644512324142506,6.357390592306746,21.883929501960615
-0.7183708764853955,3.9334737552868213,-2.4703497650614272,-1.6456119373946445,7.154585659493979,22.60336631695981
-0.6790361389325273,4.005019611881761,-2.4868058844353738,-1.4195782742250465,7.924485869839969,23.42037543211403
-0.6389859428137097,4.084264470580161,-2.5010016671776243,-1.185374519903906,8.66344804899255,24.323458120733576
-0.5981432981079081,4.170898951070086,-2.5128554123766635,-0.9421399386965703,9.36579273308447,25.29922903485976
-0.5564343085972072,4.2645568784009305,-2.5222768117636294,-0.6891476483479727,10.023767159797904,26.33204471036169
-0.513788739813198,4.364794549998909,-2.529168288247109,-0.4258272012443558,10.627576221121165,27.40372566003424
-0.4701407943132089,4.471070312210121,-2.533426560259553,-0.1517899446440134,11.165507389835449,28.493419398041585
-0.42543009119110764,4.582725386108476,-2.534944459705993,0.13314424933640245,11.624175696682611,29.577653210418976
-0.37960283733002287,4.6989671430753015,-2.533613017212629,0.4289207814405922,11.988909922552068,30.63062111595146
-0.33261316589926987,4.818856242300822,-2.529323809398223,0.7352269926001068,12.244290334293932,31.624736625682136
-0.28442460347626164,4.941299145643762,-2.5219715394722217,1.0514743588569282,12.374831282628355,32.53146000482792
-0.235011612019824,5.065047458470046,-2.5114567958836527,1.3767889589052074,12.365779823700265,33.32237606240205
-0.18436113743512356,5.188705256707048,-2.4976889062946004,1.7100127195292278,12.203976951399389,33.97045902464549
-0.13247408486805307,5.310745026221042,-2.480588779099308,2.0497173097756827,11.878705478545495,34.45142076213247
-0.07936663460584265,5.429532081006497,-2.4600916060015514,2.3942315173970075,11.382433622008843,34.745005905643666
-0.025071313795777678,5.543356417226585,-2.4361492908275815,2.741681576453444,10.711361282281528,34.836081278652856
0.030362250376488174,5.650470030049401,-2.408732475063047,3.0900423892399727,9.86569032771841,34.71537483476473
0.08686695067698219,5.749126933326584,-2.3778320511706474,3.43719613758762,8.849570926952367,34.37975366309182
0.14435822001024803,5.837622642596108,-2.343460089794771,3.7809936742185384,7.6707189991927445,33.83198814610549
0.2027344464362091,5.914329832588036,-2.3056501530525857,4.119313555679593,6.3397475096322085,33.08002046726412
0.26187774476208947,5.977727307684359,-2.26445701749579,4.4501137603522345,4.869297328884016,32.13582694427294
0.3216550178389331,6.026420280973199,-2.2199558798922676,4.771472029794964,3.2730833452865618,31.01402146185107
0.38191922064866507,6.059151114426065,-2.172241159594318,5.081612244413475,1.5649833194832377,29.73038145625369
0.4425107317929257,6.074800947620897,-2.1214250371501833,5.378916058976012,-0.2417102484100173,28.300484224471017
0.5032587412691347,6.072383845136797,-2.067635876560423,5.661920901220722,-2.134778183762453,26.738621718708934
0.5639825797205027,6.051036063299173,-2.011016667548216,5.929307118407811,-4.1032394946902055,25.057122812326718
0.6244929403534945,6.010003668352271,-1.951723596364138,6.179878346531078,-6.137168927892937,23.26616134664223
0.6845929770370172,5.948631979073341,-1.889924812898827,6.412539959997501,-8.227183021173984,21.374073244267105
0.7440792968277505,5.8663601488616015,-1.825799413298852,6.626280692440172,-10.363648775744123,19.388151360092166
0.8027428983163666,5.76272366110416,-1.7595366063744502,6.820162206041094,-12.535704815329595,17.31583486275435
0.8603701349274082,5.637366612950864,-1.6913349843140393,6.993320554668638,-14.730217211923081,15.166161921455629
0.9167438010569169,5.490064440831634,-1.621401778767353,7.144982173883194,-16.93081890291996,12.95131210594613
0.9716444454652332,5.320756251802434,-1.549951957028521,7.274495294942655,-19.117198350183827,10.688032347171802
1.0248520079832575,5.129584268300596,-1.4772070040790943,7.381375618414373,-21.264803039811316,8.39872476259565
1.0761478506662634,4.916936237902483,-1.4033932478949507,7.46536286604033,-23.34509899355009,6.111985393095484
1.1253172130452882,4.683485247966982,-1.3287396192345473,7.526482719971285,-25.32647315450166,3.86242834134766
1.172152065524958,4.430220516421966,-1.2534747920348344,7.565107003384761,-27.175781642209724,1.6897131915563421
1.2164542706891777,4.158462699999869,-1.1778237220009868,7.582004135300324,-28.860442691965076,-0.36319123046063895
1.2580388976891763,3.8698582730802182,-1.1020036806479836,7.578372222995718,-30.350867385555922,-2.2523443044910247
1.2967374804199785,3.566349599224659,-1.0262199584180265,7.555848779950807,-31.622939078810973,-3.9354930380210598
1.332400976412225,3.2501202084365493,-0.9506614706185184,7.516493849570597,-32.66021790979181,-5.374699302647114
1.3649021784965907,2.923518029338631,-0.8754965321228124,7.4627468565441255,-33.45557451965228,-6.538569626122188
1.394137358789977,2.5889622841421085,-0.8008690635573712,7.3973611602829035,-34.012045508152845,-7.403781095182921
1.4200269816313982,2.24884182906058,-0.7268954519545422,7.3233233493310745,-34.342833243853796,-7.955712370973139
1.442515399922004,1.905413496622042,-0.6536622184612314,7.243766225621343,-34.47051378654124,-8.188132026831807
1.4615695348882243,1.5607083587566295,-0.581224556205018,7.161884905353025,-34.42563654978698,-8.102032536356393
