th1 (rad),w1 (rad/s),th2 (rad),w2 (rad/s),a1 (rad/s^2),a2 (rad/s^2)
3.386483910513467,0.24392353763146465,6.177560704375063,2.1766120360973455,6.556909602902218,7.170987958009184
3.3889231458897817,0.30949263366048685,6.199326824736036,2.248321915677437,6.501473019019519,6.93786340665034
3.3920180722263864,0.37450736385068206,6.221810043892811,2.3177005497439405,6.431041051939666,6.6790270483463186
3.395763145864893,0.43881777437007874,6.24498704939025,2.3844908202274038,6.345165829587778,6.394653060483002
3.400151323608594,0.5022694326659565,6.268831957592524,2.4484373508322337,6.243672706785732,6.085255611094271
3.4051740179352534,0.5647061597338138,6.293316331100846,2.5092899069431764,6.126687876195991,5.751715400160235
3.4108210795325915,0.6259730384957737,6.318409230170278,2.566807060944779,5.994658802527213,5.395296912225524
3.4170808099175494,0.6859196265210458,6.344077300779726,2.620760030067034,5.848365823393387,5.017654645808947
3.4239400061827596,0.7444032847549796,6.370284901080396,2.6709365765251234,5.68892357016502,4.620827004802261
3.431384039030309,0.8012925204566298,6.396994266845647,2.717144846573146,5.517771308416244,4.20721710430126
3.4393969642348754,0.8564702335407922,6.4241657153113785,2.759217017616159,5.336651857880066,3.77956042667387
3.4479616665702832,0.9098367521195929,6.45175788548754,2.7970126218828977,5.147579388636449,3.340880015011506
3.457060034091479,0.9613125460059574,6.479728011706369,2.830421422033013,4.952797053547665,2.894430649498408
3.4666731595515388,1.010840516541434,6.508032225926699,2.859365728527997,4.754726049235136,2.443634150333987
3.476781564716953,1.0583877770337855,6.536625883211979,2.883802070031337,4.555908240900686,1.9920085229727869
3.487365442487291,1.1039468594427924,6.565463903912292,2.9037221552610646,4.358944888363657,1.5430940520594552
3.498404911081719,1.147536308326429,6.594501125464903,2.919153095781659,4.166434233570041,1.1003796216174726
3.509880274164983,1.1892006506621293,6.623692656422719,2.930156891997834,3.9809107338235923,0.6672324756842511
3.5217722806716045,1.2290097580003652,6.652994225342697,2.9368292167546763,3.804788551388596,0.24683434524693404
3.5340623782516083,1.267057643514251,6.682362517510244,2.939297560207146,3.6403115606460577,-0.15787361339140374
3.546732954686751,1.3034607591207117,6.711755493112316,2.9377188240732317,3.4895116473287544,-0.5442352461280895
3.5597675622779583,1.3383558755939993,6.741132681353048,2.9322764716119507,3.35417650048826,-0.9099120743656011
3.573151121033898,1.3718976405988819,6.7704554460691675,2.9231773508682948,3.2358274912261176,-1.2529038124423153
3.586870097439887,1.404255915511143,6.799687219577851,2.910648312743872,3.1357076450537957,-1.571557002476838
3.6009126565949985,1.435612991961681,6.82879370270529,2.8949327427191034,3.05477919129202,-1.8645626232183412
3.615268786514615,1.4661607838746011,6.857743030132481,2.87628711648692,2.9937297456135443,-2.130943988025435
3.629930394353361,1.4960980813307365,6.88650590129735,2.8549776766066657,2.952985869501821,-2.370036564107112
3.6448913751666683,1.5256279400257546,6.915055678063417,2.8312773109655947,2.9327325584840764,-2.581461519366041
3.660147654566926,1.5549552656105954,6.943368451173073,2.805462695771934,2.932937133377003,-2.765094846108988
3.6756972072230316,1.5842846369443655,6.971423078130792,2.777811747310844,2.953376030608097,-2.9210338432109237
3.691540053592475,1.6138183972504465,6.9992011956039,2.7486014088787347,2.9936630886257136,-3.049562585940755
3.7076782375649797,1.6437550281367037,7.026687209692688,2.718105783019327,3.053278084844674,-3.151117803062095
3.7241157878463467,1.6742878089851505,7.053868267522882,2.686594604988706,3.1315944691873794,-3.226256340137301
3.740858665936198,1.7056037536770243,7.080734213572769,2.6543320415873333,3.2279054460739953,-3.2756251388858804
3.7579147034729683,1.7378828081377642,7.1072775339886425,2.6215757901984746,3.341447760221055,-3.299934423078438
3.775293531554346,1.7712972857399747,7.133493291890627,2.58857644596769,3.4714227304254224,-3.299934564893285
3.793006504411746,1.806011513044229,7.1593790563503035,2.5555771003187573,3.617014241302218,-3.2763969202453245
3.811066619542188,1.842181655457251,7.184934827353491,2.5228131311163042,3.777403541043456,-3.2300987714495126
3.8294884360967605,1.8799556908676855,7.210162958664654,2.490512143401809,3.9517808020552714,-3.1618124014568783
3.8482879930054374,1.9194734988882383,7.235068080098672,2.45889401938724,4.1393534815509785,-3.0722982440341613
3.86748272799432,1.9608670337037482,7.259657020292544,2.4281710369468987,4.3393515732170584,-2.962302005170585
3.887091398331357,2.004260549435919,7.283938730662014,2.3985480168951927,4.551029872365327,-2.832555628185326
3.9071340038257163,2.049770848159572,7.307924210830966,2.3702224606133395,4.773667389517562,-2.6837819734851767
3.927631712307312,2.0975075220547477,7.3316264354371,2.343384640878488,5.006564045292705,-2.5167030985802223
3.9486067875278597,2.147573162507675,7.355060281845884,2.318217609892686,5.249034766852953,-2.3320520498280883
3.9700825191529363,2.2000635101762045,7.378242457944811,2.294897089394405,5.500401086856016,-2.1305881097035093
3.9920831542546984,2.2550675210447646,7.4011914288387555,2.2735912082973697,5.759980323400926,-1.9131154776973136
4.014633829465146,2.312667324278774,7.423927340921729,2.2544600535203965,6.027072397086399,-1.6805053949665618
4.037760502707934,2.372938048249638,7.446471941456933,2.2376549995707307,6.300944321995772,-1.4337217484358038
4.061489883190431,2.4359474914695958,7.46884849145264,2.2233177820863728,6.580812393939919,-1.1738502050516193
4.0858493581051265,2.501755615408995,7.491081669273504,2.2115792800358567,6.865822094232872,-0.9021309270852109
4.1108669142592165,2.5704138363513236,7.513197462073862,2.2025579707650045,7.15502573314841,-0.6199949003379033
4.136571052622729,2.6419640936828075,7.535223041781512,2.1963580217616254,7.447357876447966,-0.3291038641581667
4.162990693559557,2.716437672447287,7.557186621999128,2.1930669831200436,7.741608633369129,-0.031393760383232806
4.19015507028403,2.7938537587809784,7.579117291830329,2.1927530455162114,8.03639493754086,0.2708784875005955
4.21809360787184,2.874217708156387,7.601044822285491,2.1954618303912175,8.33013002566845,0.5750851988434608
4.2468357849534035,2.9575190084130716,7.622999440589403,2.201212682379652,8.620991414572337,0.8781756876248885
4.2764109750375345,3.043728922558795,7.6450115674132,2.2099944392559006,8.90688779712897,1.1766223047387383
4.306848264263122,3.1327978005300845,7.667111511805759,2.221760662303288,9.185425423471534,1.4663658278421101
4.338176242268423,3.2246520547647997,7.689329118428792,2.236424320581709,9.453874706883704,1.7427616080549218
4.370422762816071,3.3191908018336367,7.711693361634609,2.2538519366622585,9.709137995508527,2.0005282964317703
4.403614670834408,3.416282181788722,7.734231881001231,2.273857219626576,9.947719682848739,2.2337014502982955
4.437777492652295,3.5157593786172097,7.756970453197497,2.296194234129559,10.165700094251756,2.4355948613777283
4.472935086438467,3.617416379559727,7.7799323955387925,2.3205501827433364,10.358714886607496,2.598773054349792
4.509109250234064,3.7210035284258023,7.803137897366226,2.3465379132868343,10.521942039758946,2.715039075445745
4.546319285518322,3.826222948823392,7.826603276499094,2.3736883040412917,10.650098908634295,2.7754424241608837
4.5845815150065565,3.932723937909735,7.850340159539507,2.4014427282829005,10.737452255623591,2.770312773336238
4.623908754385654,4.040098460465971,7.874354586822336,2.429145856016263,10.777844705952594,2.6893259652506485
4.664309738990314,4.147876907525497,7.898646045382499,2.4560391156687693,10.764741676724512,2.5216096456108708
4.705788508065568,4.255524324292741,7.9232064365391865,2.481255212124878,10.69130352844679,2.255896765770723
4.748343751308496,4.36243735957721,7.9480189886604355,2.5038141797825855,10.550488465257708,1.8807359739514864
4.791968124904268,4.4679422442297865,7.973057130458262,2.5226215395221003,10.33519252328694,1.3847684993476381
4.8366475473465655,4.571294169462655,7.9982833458534826,2.5364692245155767,10.038433736910964,0.7570812918244733
4.882360489041192,4.671678506831765,8.023648038098639,2.5440400374338212,9.653588076439458,-0.012354426967897063
4.92907727410951,4.76821438759616,8.049088438472976,2.5439164931641423,9.174684705438265,-0.9321519210895671
4.9767594179854715,4.859961234650543,8.074527603404619,2.5345949739532467,8.596767058569354,-2.0088815618769376
5.025359030331977,4.9459289052362365,8.099873553144151,2.5145061583344774,7.916323572810557,-3.246350533555392
5.074818319384339,5.025092140964342,8.125018614727496,2.4820426529989237,7.131786854517854,-4.644803308519321
5.125069240793983,5.096410009509521,8.149839041257486,2.4355946199137306,6.244091820334318,-6.200071730855393
5.176033340889078,5.158850927712864,8.174194987456623,2.373593902605177,5.257271250875675,-7.902723840229463
5.227621850166207,5.2114236402216205,8.197930926482675,2.294566664202882,4.179051073952135,-9.737285490397923
5.279736086568423,5.253214150961142,8.220876593124704,2.197193809298903,3.0213883540358966,-11.681636203931555
5.332268228078035,5.283428034501501,8.242848531217692,2.0803774472595875,1.8008747387834523,-13.706706047670803
5.385102508423049,5.301436781889335,8.263652305690288,1.9433103867828794,0.5389113021037766,-15.776616363935027
5.438116876241943,5.306825894910373,8.283085409558117,1.785544223143529,-0.7384463933504327,-17.849404357359617
5.491185135191047,5.299441430976869,8.300940851789552,1.6070501795699328,-2.001064178654667,-19.878439601945594
5.544179549500815,5.2794307891903225,8.31701135358525,1.4082657835504768,-3.2157835223014155,-21.814572033225847
5.596973857392719,5.247272953967308,8.331094011420756,1.1901200632182183,-4.3479513639967085,-23.608945868900236
5.649446586932392,5.203793440327341,8.342995212052939,0.954030604529216,-5.363340716608666,-25.216283991675738
5.701484521335665,5.150160033161255,8.35253551809823,0.7018677646124586,-6.230287238058974,-26.598318146372254
5.752986121667278,5.087857160780665,8.359554195744355,0.43588458314873607,-6.921791220179437,-27.72694746187551
5.803864693275084,5.018639248578871,8.363913041575842,0.15861510852998095,-7.417297715095844,-28.586686988005113
5.854051085760873,4.944466271427912,8.365499192661142,-0.12725176135007016,-7.703888280700237,-29.176040759750336
5.9034957484751525,4.86742738862091,8.364226675047641,-0.41901216894757354,-7.776699222243378,-29.50759566957526
5.952170022361361,4.789660396398476,8.360036553358166,-0.7140881256433261,-7.638506924547472,-29.60684882069758
6.000066626325346,4.713275327153002,8.352895672101733,-1.010156613850302,-7.298559042890911,-29.50999752874529
6.047199379596876,4.6402897367240925,8.342794105963229,-1.305256589137755,-6.77084464325178,-29.261082257325544
6.093602276964116,4.572581290291574,8.32974154007185,-1.5978674117110105,-6.072059376239303,-28.90894228734718
6.139328089867032,4.511860696529181,8.313762865954741,-1.8869568345844825,-5.219523810533704,-28.5044163055161
6.184446696832324,4.459665458423844,8.294893297608896,-2.1720009976396435,-4.229263293695637,-28.098118532988916
6.229043351416562,4.417372825486888,8.273173287632499,-2.452982182969533,-3.1143776375243997,-27.738984634717696
6.273217079671431,4.386229049111644,8.248643465802804,-2.73037202931671,-1.8837428201822537,-27.47364954854371
6.317079370162547,4.367391620909821,8.221339745509637,-3.005108524802147,-0.541013965802748,-27.34661861509063
6.360753286371645,4.361981481251793,8.191288660261614,-3.278574710953053,0.9161501730091375,-27.401134286183964
6.404373101184163,4.371142982981884,8.158502913152084,-3.552586053814893,2.496742702477413,-27.680618114729647
6.448084531013982,4.396110410006658,8.122977052613935,-3.829392234962189,4.217039190671848,-28.230564563652273
6.4920456351140485,4.438280801913376,8.084683130264313,-4.111697880598712,6.10125939485773,-29.10075126494194
6.5364284431331825,4.499293395861954,8.043566151458325,-4.402705393248131,8.182225237292739,-30.347564131810564
6.581421377091802,4.581115648234881,7.999539097525844,-4.706181034566237,10.501786820130464,-32.036031389775076
6.62723253357415,4.686133516436186,7.952477287180182,-5.026541348463987,13.110374313784142,-34.24064705393411
6.674093868738512,4.817237259574028,7.902211873695542,-5.368947819003329,16.06413746928934,-37.0428761914093
6.722266241334252,4.977878634266921,7.848522395505508,-5.739376580917422,19.416193844998613,-40.52058901019213
6.7720450276769215,5.172040572716908,7.791128629696334,-6.144582471019343,23.194360493048755,-44.7189476957037
6.82376543340409,5.403984177647395,7.72968280498614,-6.5917719479763806,27.34921872215587,-49.58041877791696
6.877805275180564,5.677476364868953,7.663765085506377,-7.08757613575555,31.64045396194177,-54.78934317225804
6.934580038829254,5.993880904488371,7.592889324148821,-7.635469567478131,35.40711831809932,-59.45506791178015
6.994518847874137,6.3479520876693645,7.51653462847404,-8.230020246595933,37.16920094460003,-61.55914008245847
7.057998368750831,6.719644097115364,7.43423442600808,-8.845611647420517,34.17661098595607,-57.32583200334654
7.125194809721985,7.061410206974925,7.345778309533875,-9.418869967453983,22.702449390611232,-41.62393384450303
7.195808911791734,7.288434700881037,7.2515896098593355,-9.835109305899014,0.903714645369189,-11.938944416676605
7.268693258800544,7.297471847334729,7.153238516800346,-9.95449875006578,-26.059988508910553,24.530406525153733
7.341667977273891,7.036871962245624,7.053693529299688,-9.709194684814243,-47.00510121317578,52.3073009812645
7.412036696896347,6.566820950113867,6.956601582451545,-9.186121675001598,-55.61875430647269,62.80549688010173
7.477704906397486,6.01063340704914,6.864740365701529,-8.55806670620058,-54.81785951810696,60.2387672798757
7.537811240467978,5.46245481186807,6.779159698639523,-7.9556790334018235,-50.013695746219604,52.16158495488142
7.592435788586658,4.962317854405874,6.699602908305505,-7.434063183853009,-44.51599120233896,43.135731822207106
7.642058967130717,4.517157942382484,6.625262276466975,-7.002705865630938,-39.61427211445542,34.90615322394231
7.6872305465545425,4.12101522123793,6.555235217810665,-6.653644333391515,-35.62400096359973,27.87553653378796
7.728440698766922,3.7647752116019326,6.48869877447675,-6.374888968053636,-32.50986617098813,21.971045656856138
7.766088450882941,3.4396765498920514,6.424949884796213,-6.155178511485074,-30.142655234232755,16.99789355584186
7.800485216381861,3.138249997549724,6.363398099681362,-5.985199575926655,-28.3879330006443,12.759892048898724
7.831867716357358,2.854370667543281,6.303546103922096,-5.857600655437668,-27.130918160085624,9.092593123693568
7.860411423032791,2.583061485942425,6.244970097367719,-5.766674724200732,-26.27957317257528,5.867114406900274
7.886242037892215,2.320265754216672,6.1873033501257115,-5.70800358013173,-25.76121701753349,2.9856205273472685
7.909444695434382,2.062653584041337,6.130223314324394,-5.678147374858257,-25.517875794170575,0.3755110292129246
7.930071231274795,1.8074748260996314,6.0734418405758115,-5.674392264566128,-25.50196499874976,-2.01558963982997
7.948145979535791,1.552455176112134,6.01669791793015,-5.694548160964428,-25.672658874969308,-4.223630835904683
7.963670531296913,1.295728587362441,5.959752436320506,-5.736784469323474,-25.992920786106524,-6.270843756617002
7.976627817170537,1.0357993795013756,5.902384591627271,-5.799492906889644,-26.427089243803618,-8.167617173966656
7.9869858109655505,0.7715284870633394,5.844389662558375,-5.881169078629311,-26.938937890735176,-9.91381741607305
7.9947010958361835,0.5021391081559876,5.785577971772081,-5.980307252790041,-27.490183811485796,-11.499821533218348
7.999722486917744,0.22723727004112965,5.725774899244181,-6.095305468122224,-28.039481408764008,-12.907526676529475
8.001994859618154,-0.05315754404651046,5.664821844562959,-6.224380734887519,-28.54199650419383,-14.111595790989597
8.001463284177689,-0.33857750908844875,5.602578037214084,-6.365496692797415,-28.94969617069105,-15.081188629709915
7.998077509086804,-0.6280744707953592,5.53892307028611,-6.516308579094514,-29.21249958552404,-15.78238955381715
7.991796764378851,-0.9201994666505995,5.473759984495165,-6.674132474632685,-29.2803962402332,-16.181458407506682
7.982594769712345,-1.2130034290529315,5.407018659748838,-6.835947058707752,-29.10653389468603,-16.248880751082783
7.970464735421816,-1.5040687679997917,5.33865918916176,-6.99843586621858,-28.651104009621523,-15.963976563533206
7.955424047741817,-1.790579808096007,5.268674830499574,-7.1580756318539125,-27.88562393453775,-15.319567686495185
7.937518249660857,-2.0694360474413847,5.1970940741810345,-7.311271308718864,-26.79698211178886,-14.32596577800692
7.9168238891864435,-2.3374058685592733,5.123981361093846,-7.454530966498933,-25.39045525013379,-13.013417304189597
7.893449830500851,-2.5913104210606113,5.049436051428857,-7.58466513954083,-23.690915337396632,-11.432225747421322
7.867536726290244,-2.8282195744345775,4.973589400033449,-7.698987397015043,-21.741679913845385,-9.650113771006088
7.839254530545898,-3.045636373573031,4.896599526063298,-7.795488534725104,-19.600906912782076,-7.746946276816133
7.808798166810168,-3.241645442700852,4.818644640716047,-7.872957997493265,-17.335986179905618,-5.80755916261006
7.776381712383159,-3.4150053044999082,4.739915060741114,-7.931033589119366,-15.016857257477255,-3.9139169046592017
7.74223165933816,-3.565173877074681,4.660604724849921,-7.970172758165958,-12.709418125501914,-2.137975652515266
7.706579920567414,-3.6922680583297,4.580902997268261,-7.991552514691111,-10.470102329000081,-0.5364007492875855
7.669657239984117,-3.796969081619701,4.500987472121349,-7.996916522183986,-8.342340155356604,0.8522258774264382
7.63168754916792,-3.8803924831732672,4.4210183068995095,-7.988394263409722,-6.355129883494316,2.007676133257855
7.592883624336188,-3.9439437820082106,4.341134364265412,-7.968317502077143,-4.52349691855248,2.926286185369039
7.5534441865161055,-3.9891787511937356,4.2614511892446405,-7.9390546402234525,-2.8503298541314748,3.6178373454536668
7.513552399004168,-4.0176820497350505,4.182060642842406,-7.902876266768916,-1.32898689933067,4.101868798593552
7.473375578506817,-4.0309719187283575,4.103031880174717,-7.861857578782981,0.05387343680782301,4.404044409756698
7.433065859319534,-4.030433184360279,4.024413304386887,-7.817817134685415,1.3156369297713335,4.552980706169439
7.392761527475931,-4.017276815062566,3.946235133040033,-7.7722873276237205,2.4754870398999524,4.57773108201432
7.352588759325305,-3.992521944663566,3.8685122597637958,-7.726510016803577,3.5526592948823543,4.505957684470707
7.3126635398786695,-3.9569953517147427,3.79124715959576,-7.68145043995887,4.565190568243757,4.3627206649912225
7.273093586361522,-3.9113434460323053,3.7144326551961715,-7.637823233308958,5.529101986375755,4.169767202726234
7.233980151901199,-3.8560524261685476,3.638054422863082,-7.596125561281696,6.457932554341768,3.945193980817905
7.195419627639514,-3.79147310062513,3.5620931672502647,-7.556673621473516,7.362540577554283,3.703370312167064
7.157504896633263,-3.717847694849587,3.4865264310355295,-7.519639918351846,8.251101240267229,3.455032150662054
7.120326419684767,-3.6353366824469147,3.4113300318520112,-7.485089596845225,9.129243937044187,3.207481539763835
7.083973052860298,-3.5440442430764727,3.336479135883559,-7.453014781447587,10.000287710494392,2.9648471911824923
7.048532610429533,-3.444041365971529,3.261948988069083,-7.423366309535762,10.865545243372884,2.728378048880173
7.014092196769818,-3.3353859135378,3.187715324973725,-7.396082529046961,11.7246745939067,2.496752670682434
6.98073833763444,-3.218139167598733,3.1137544996832554,-7.371115002340137,12.57606343835695,2.266393676239386
6.948556945958453,-3.0923785332151636,3.040043349659854,-7.348451065577743,13.417233636768378,2.0317793427646413
