th1 (rad),w1 (rad/s),th2 (rad),w2 (rad/s)
1.486923861803578,-2.252910151507984,4.945292442900193,-0.20066380403326306
1.4643947602884981,-2.334769623726899,4.943285804859861,-0.16728555830728867
1.4410470640512292,-2.4140263942991877,4.941612949276788,-0.12863717614998002
1.4169068001082372,-2.4904798930344803,4.940326577515288,-0.08430790954982623
1.3920020011778924,-2.5639516364606996,4.93948349841979,-0.033911921031350954
1.3663624848132854,-2.63429289901013,4.939144379209476,0.02290162243974872
1.340019555823184,-2.701392492092061,4.939373395433874,0.08643873301151668
1.3130056309022633,-2.7651843482747305,4.940237782763989,0.15695159859853533
1.285353787419516,-2.825654577297095,4.941807298749975,0.2346309709648594
1.2570972416465451,-2.8828476521418076,4.944153608459623,0.31960052961373514
1.228268765125127,-2.936871402716049,4.947349613755761,0.41191376756830533
1.1989000510979664,-2.9879005454738956,4.9514687514314435,0.5115538588686905
1.1690210456432275,-3.036178560040136,4.95658429002013,0.6184368354150643
1.1386592600428262,-3.0820178350869223,4.962768658374281,0.7324182313042606
1.107839081691957,-3.1257981378133586,4.9700928406873235,0.8533031612485272
1.0765811003138235,-3.1679636033783627,4.9786258722998085,0.9808596064890578
1.0449014642800398,-3.2090185795193507,4.988434468364699,1.1148345100364954
1.0128112784848464,-3.2495227843641348,4.9995828134650635,1.2549721557497526
0.9803160506412051,-3.2900863314297943,5.012132535022561,1.4010342413750128
0.9474151873269071,-3.3313652386613035,5.026142877436311,1.5528210660834012
0.9141015349402941,-3.3740580674374194,5.041671088097146,1.710193341862454
0.8803609542659199,-3.418904338145289,5.05877302151577,1.873094300856825
0.846171910884467,-3.46668535195638,5.077503964524338,2.041571996719268
0.8115050573649032,-3.5182280284624365,5.09791968449153,2.2158019733074408
0.7763227770802789,-3.574412362382425,5.120077704224604,2.396110784881819
0.7405786534564546,-3.636183125879562,5.144038812073422,2.583001187504999
0.7042168221976589,-3.704566509781293,5.169868823948472,2.7771801749152063
0.667171157099846,-3.7806925152572126,5.197640625697624,2.9795913994591636
0.6293642319472739,-3.8658240746679464,5.227436539692216,3.19145389113773
0.5907059912005944,-3.9613940723405214,5.2593510786035935,3.4143093365709603
0.5510920504771892,-4.069051584002373,5.293494171969303,3.6500804209061197
0.5104015346371655,-4.19071859183635,5.329994976178364,3.9011426565515968
0.468494348718802,-4.328657785023202,5.36900640274388,4.170411222325678
0.42520777086857,-4.48554999135365,5.410710514967136,4.461441482650184
0.3803522709550335,-4.664574480405171,5.455324929793639,4.778534538333236
0.3337065261509818,-4.869472859751937,5.503110275176971,5.126821874255771
0.2850117975534624,-5.104548969823314,5.554378493919529,5.512263976627444
0.23396630785522926,-5.37449489206416,5.609501133685804,5.94141132930555
0.18022135893458766,-5.683800251090633,5.668915246978859,6.420591154299561
0.12338335642368131,-6.035233212356248,5.733121158521855,6.953808083976469
0.06303102430011884,-6.426401424489895,5.80265923936162,7.5379747564508355
-0.001232989944780119,-6.842812598211898,5.878038986926128,8.153260316240573
-0.06966111592689911,-7.246253904870801,5.959571590088533,8.746891634496906
-0.14212365497560714,-7.562700966557504,6.047040506433502,9.216270020286807
-0.21775066464118217,-7.689846326345222,6.13920320663637,9.41947719771234
-0.2946491279046344,-7.553411099300401,6.233397978613493,9.25389201722114
-0.3701832388976384,-7.181308446916359,6.325936898785705,8.75945438168487
-0.44199632336680195,-6.688461900849504,6.413531442602554,8.09688989687758
-0.508880942375297,-6.1833370818211995,6.49450034157133,7.417237924646732
-0.5707143131935091,-5.721079528662699,6.568672720817797,6.7970514905488
-0.627925108480136,-5.31679077367739,6.636643235723285,6.257282593027555
-0.68109301621691,-4.9678310782235044,6.69921606165356,5.7943983236998164
-0.730771326999145,-4.666231706345468,6.757160044890559,5.397595201870221
-0.7774336440625997,-4.403587946255679,6.811135996909261,5.05554554666781
-0.8214695235251566,-4.172562682953945,6.861691452375939,4.758451342313248
-0.863195150354696,-3.967140676669402,6.909275965799071,4.498378764991498
-0.90286655712139,-3.7824914093517705,6.954259753448986,4.26905886973291
-0.9406914712149077,-3.614747140060496,6.996950342146316,4.065575540479196
-0.9768389426155126,-3.4607943877157106,7.037606097551108,3.8840741895862907
-1.0114468864926698,-3.318103295382984,7.07644683944697,3.7215234937993875
-1.0446279194464996,-3.1845951875107854,7.113662074384965,3.575529627323169
-1.0764738713216073,-3.058542076423934,7.149417370658196,3.444193722448069
-1.1070592920858466,-2.9384912008929156,7.183859307882677,3.3260025518942262
-1.1364442040947758,-2.8232087070043455,7.217119333401619,3.219743970853859
-1.1646762911648192,-2.711637880192214,7.2493167731101575,3.124440548103199
-1.1917926699667414,-2.6028684694858195,7.2805611785911895,3.039296477575846
-1.2178213546615995,-2.496114518791474,7.310954143366948,2.9636541852335574
-1.2427824998495143,-2.3906987536727633,7.340590685219284,2.8969580671410458
-1.266689487386242,-2.286042011214176,7.369560265890694,2.8387235810670184
-1.2895499074983838,-2.1816564911637046,7.397947501701364,2.788510527400093
-1.311366472410021,-2.0771417885332646,7.425832606975365,2.745899841191316
-1.3321378902953536,-1.9721827751079382,7.453291605387278,2.7104736041602613
-1.351859718046433,-1.866548459637549,7.4803963414288805,2.681798287057307
-1.3705252026428083,-1.7600910009630524,7.507214324299453,2.659411450694485
-1.388126112652439,-1.65274409985139,7.533808438806398,2.6428122623296963
-1.4046535536509528,-1.5445200756730024,7.5602365614296945,2.6314562139760462
-1.4200987544076829,-1.4355050598980903,7.586551123569455,2.624754354038619
-1.4344538050066638,-1.3258519183782564,7.612798667109842,2.6220771648118126
-1.4477123241904464,-1.2157707464350047,7.63901943875796,2.6227629498257268
-1.4598700316547963,-1.105517050377887,7.6652470682562175,2.626130266093118
-1.4709252021585753,-0.9953780097497739,7.691508370917148,2.631493590666798
-1.480878982256073,-0.8856574712553931,7.717823306823816,2.6381811016395926
-1.489735556968627,-0.7766605204053928,7.744205117840212,2.645553234432175
-1.497502162172681,-0.6686785782484916,7.770660650184534,2.6530205882034172
-1.5041889479551658,-0.5619759591542342,7.797190856066568,2.660059827261081
-1.5098087075467082,-0.4567787008810723,7.8237914543391796,2.6662264443883137
-1.514376494555519,-0.35326625910308274,7.850453718783062,2.67116359591082
-1.5179091571465497,-0.25156638002814535,7.8771653547421705,2.674606630273552
-1.5204248209468312,-0.15175316992473473,7.903911421044906,2.6763833515986772
-1.5219423526460785,-0.053848111653496816,7.930675254560893,2.6764104294175297
-1.5224808337626135,0.04217643102761763,7.957439358855068,2.6746866423442968
-1.5220590694523373,0.13639181151758,7.984186225278512,2.6712838046885925
-1.5206951513371614,0.22890643986507947,8.010899063325397,2.6663362703965747
-1.5184060869385105,0.31985847940620526,8.037562426029362,2.660029855403665
-1.5152075021444484,0.4094084387753304,8.064162724583399,2.6525908953542685
-1.5111134177566952,0.49773208751502535,8.090688633536942,2.64427599192598
-1.506136096881545,0.5850140014580224,8.117131393456201,2.6353628262115047
-1.5002859568669646,0.6714419263572939,8.143485021718316,2.6261422537966572
-1.4935715376033918,0.7572020459411681,8.169746444256283,2.6169117574565814
-1.4859995171439802,0.842475159421545,8.19591556183085,2.607970226436791
-1.4775747655497646,0.9274337148918805,8.221995264095218,2.5996139568354257
-1.4683004284008458,1.0122396073912494,8.247991403663573,2.59213372243886
-1.4581780323269333,1.0970426303195713,8.273912740887962,2.5858127441459606
-1.4472076060237375,1.1819794623317397,8.299770868329421,2.5809253828450927
-1.4353878114004202,1.2671730748500079,8.325580122157872,2.5777363895981376
-1.4227160806519201,1.3527324544572232,8.351357486053853,2.5765005634156752
-1.409188756107348,1.4387525469117632,8.37712249168801,2.5774626870276602
-1.3948012306382302,1.5253143433271639,8.402897118558286,2.58085763217467
-1.3795480872049586,1.6124850428058575,8.428705694880033,2.5869105462992583
-1.3634232367769,1.7003182386595959,8.454574800343027,2.5958370510736333
-1.346420054390304,1.7888540868439915,8.480533170853763,2.607843399470723
-1.328531513521864,1.8781194252197602,8.50661160484847,2.6231265519561
-1.3097503192696665,1.9681278207520174,8.53284287036803,2.6418741439689986
-1.2900690410621463,2.058879528902737,8.55926161180772,2.6642643264237686
-1.269480245773119,2.150361355443872,8.585904255071958,2.690465468806999
-1.2479766322186803,2.2425464159168462,8.612808909760027,2.7206357208847387
-1.225551168059512,2.3353937921735755,8.640015266968874,2.754922434356916
-1.2021972301377761,2.4288480890132065,8.667564491312444,2.7934614502446826
-1.177908749247644,2.5228388969999753,8.695499105814891,2.836376261557195
-1.1526803602776443,2.617280170194309,8.723862868430462,2.8837770639825484
-1.1265075585757012,2.7120695297952677,8.752700639070287,2.9357597100468302
-1.0993868632777486,2.8070875065840575,8.782058236170755,2.992404584389762
-1.071315988211908,2.9021967365491252,8.811982282014652,3.0537754194647615
-1.0422940208464169,2.997241125110464,8.842520036209299,3.1199180719879642
-1.0123216095953123,3.0920449958736933,8.873719216929178,3.190859280700753
-0.9814011596365754,3.1864122397564065,8.905627809736185,3.266605425317444
-0.9495370372390113,3.280125479570808,8.93829386398936,3.347141304744099
-0.9167357824433032,3.372945263672473,8.9717652770368,3.432428949635719
-0.8830063298065784,3.4646093000931484,9.006089566533158,3.522406480014633
-0.848360236805647,3.5548317397282356,9.041313631333304,3.6169870129898136
-0.8128119194083646,3.643302513796404,9.077483501463202,3.716057618697827
-0.7763788942704006,3.729686727188488,9.114644077650182,3.8194783146868234
-0.7390820269985158,3.813624105864336,9.15283886079705,3.9270810805314196
-0.7009457859398724,3.8947284936751863,9.192109671602365,4.0386688661683765
-0.6619985010031206,3.9725873925773465,9.232496360264049,4.154014560201373
-0.6222726270773472,4.046761541007654,9.274036505866063,4.272859879424369
-0.5818050116672706,4.116784529199006,9.316765104660305,4.39491413950719
-0.5406371663752806,4.182162458514185,9.360714246055377,4.51985287086163
-0.49881554179013876,4.242373665595058,9.405912774763992,4.647316255026985
-0.4563918051341882,4.296868552324918,9.452385937314261,4.776907377420762
-0.413423119610939,4.3450695901345995,9.500155011088468,4.908190323847226
-0.36997242370959305,4.386371602479798,9.54923691432694,5.040688192276674
-0.32610870768479505,4.420142472117372,9.599643796249707,5.173881148991233
-0.28190728296362133,4.4457244688171516,9.651382607739619,5.307204729059454
-0.2374500382754498,4.4624364456302805,9.704454655030213,5.440048663477839
-0.192825673819147,4.469577203194975,9.758855141664991,5.571756605227744
-0.14812990178719726,4.466430364938525,9.814572707717268,5.7016272171398645
-0.103465598137812,4.452271132081111,9.871588979888667,5.828917165682094
-0.05894288681700089,4.42637528431108,9.929878151545488,5.952846622843437
-0.01467913397389009,4.388030746358901,9.989406617773922,6.072607896146241
0.029201173489698917,4.336551938558121,10.050132696735384,6.187377765338068
0.07256669287528013,4.2712969589580085,10.112006474388764,6.296333984571379
0.11527966246486021,4.191687399118399,10.174969814234478,6.398676195841131
0.1571965364560442,4.097230278299444,10.238956576192889,6.493651186846542
0.19816883923903864,3.9875412078691577,10.303893088061354,6.580582022242195
0.23804425131773022,3.862367502493661,10.369698908283777,6.658900108536581
0.27666792634266685,3.721609587095101,10.436287909369142,6.728178768445148
0.3138840222136179,3.5653387718118474,10.503569697053594,6.788166469002429
0.3495374099317364,3.393809348586084,10.571451361743618,6.838817550258716
0.38347550341759723,3.2074630603727194,10.639839537246205,6.880318217807647
0.4155501340213244,3.0069243396327865,10.708642719424281,6.913105753582148
0.4456193774176523,2.7929852991908892,10.777773776960103,6.937879389178122
0.4735492304095612,2.566580230554279,10.847152570851884,6.955602048573467
0.499215032715104,2.3287502227286154,10.916708591337619,6.9674931248165235
0.5225025349423902,2.08059932939483,10.986383522585784,6.975013489773851
0.5433085282363385,1.8232443503675095,11.056133657483523,6.97984491178191
0.5615409717400136,1.5577606441511682,11.125932106601342,6.983866849963344
0.5771185781815253,1.2851263881651076,11.195770775100975,6.989134123361014
0.5899698420631764,1.0061673458778877,11.265662116334585,6.997859193535397
0.6000315155219552,0.7215035351946519,11.33564070826994,7.012402787670636
0.6072465508739018,0.4314983106255391,11.405764736146647,7.035276410690391
0.6115615339801572,0.13620938586569747,11.476117500253551,7.069160057006038
0.6129236278388142,-0.1646596448337001,11.54680910082361,7.1169382291099375
0.6112770313904772,-0.47180954283383414,11.61797848311471,7.181757231808664
0.6065589359621388,-0.7864001441046866,11.689796055432797,7.267106525480295
0.598694934521092,-1.110112048437432,11.7624671206876,7.376926280815644
0.5875938140367177,-1.4452160361124766,11.836236383495756,7.515741142405695
0.573141653675593,-1.7946459757669442,11.911393794919812,7.688814162663542
0.5551951939179236,-2.162058740928619,11.988281936546448,7.902299435555901
0.5335746065086374,-2.5518362553241394,12.067304930902008,8.163334877617002
0.5080562439553961,-2.968920736494608,12.148938279678179,8.479930831255345
0.47836703659045,-3.418233402217337,12.233737587990731,8.860318278450265
0.44418470256827663,-3.903130869188613,12.322340770775234,9.311011701923688
0.4051533938763905,-4.4217917852042605,12.41545088779447,9.832056842226024
0.3609354760243479,-4.959633553473446,12.51377145621673,10.406805949649076
0.3113391404896134,-5.4759205442655645,12.617839515713221,10.983572025303609
0.25657993504695775,-5.888311487592853,12.727675235966258,11.45412434329203
0.19769682017102921,-6.0783075240062905,12.842216479399179,11.66050341174423
0.1369137449309663,-5.956035063235124,12.958821513516622,11.483069339094044
0.07735339429861507,-5.552266366093013,13.073652206907562,10.965264645442765
0.02183073063768494,-5.001812346678284,13.18330485336199,10.288804227939211
-0.0281873928290979,-4.429436792928035,13.286192895641383,9.61787859390962
-0.07248176075837826,-3.8962246190494456,13.38237168158048,9.028953027694554
-0.11144400694887271,-3.4180481991502667,13.472661211857426,8.538216485463035
-0.14562448894037539,-2.991802671369223,13.558043376712057,8.137750666688275
-0.17554251565406762,-2.6090406670370805,13.63942088337894,7.813722172120622
-0.2016329223244384,-2.2610609543624154,13.717558105100146,7.552855025039974
-0.22424353186806256,-1.9403831376979104,13.793086655350546,7.344094635133749
-0.24364736324504166,-1.6409576756640498,13.866527601701884,7.178661602051387
-0.26005694000168217,-1.3580031274299618,13.938314217722398,7.049674598260049
-0.2736369712759818,-1.08777507178563,14.008810963704999,6.951727377647943
-0.2845147219938381,-0.8273589333828022,14.078328237481479,6.88052623066205
-0.29278831132766614,-0.574506835694468,14.147133499788099,6.8326036882848245
-0.2985333796846108,-0.3275160916667138,14.215459536670947,6.805098604079009
-0.30180854060127793,-0.08514133705816138,14.283510522711737,6.795588282050313
-0.3026599539718595,0.15346793192626132,14.35146640553224,6.801960089584287
-0.3011252746525969,0.38881150633201955,14.419486006428082,6.822313045304204
-0.2972371595892767,0.6210701280191111,14.487709136881124,6.854882695504477
-0.2910264583090856,0.8501294666329222,14.556257963836169,6.897984828796536
-0.28252516364275637,1.075600413876274,14.625237812124134,6.949975210795985
-0.2717691595039936,1.2968390562724617,14.694737564232094,7.009223609839599
-0.25880076894126897,1.5129690855753035,14.76482980033049,7.0741009894914955
-0.24367107808551594,1.7229087450994918,14.835570810225406,7.142978910296863
-0.22644199063452103,1.9254036211591017,14.907000599328374,7.2142399607150836
-0.20718795442293,2.1190656489312754,14.979142998935524,7.2862974990647125
-0.18599729793361724,2.3024176492150477,15.052005973926171,7.357622252498225
-0.16297312144146678,2.4739416501978955,15.125582196451154,7.426772555164815
-0.13823370493948783,2.632128335588577,15.199849922002802,7.492424425488246
-0.11191242158360207,2.775524382326777,15.274774166257684,7.553397496957403
-0.0841571777603343,2.9027743709217955,15.350308141227258,7.608673195654952
-0.05512943405111634,3.012654456552701,15.426394873183806,7.657402564323142
-0.02500288948558933,3.104096046774549,15.502968898827037,7.698902686177797
0.0060380709821561615,3.176199175184154,15.579957925688815,7.732642533106616
0.0378000627339977,3.228236814141735,15.65728435101988,7.758220916833521
0.07008243087541505,3.259652710683071,15.734866560188216,7.7753406932064335
0.10267895798224576,3.2700561665530805,15.81261996712028,7.783784153933286
0.13537951964777656,3.259217326759073,15.890457808659614,7.783394464100524
0.1679716929153673,3.227065947088948,15.968291753300619,7.774067062298999
0.20024235238625676,3.1736953862598876,16.04603242392361,7.755753288610178
0.23197930624885565,3.099371943592517,16.12358995680971,7.7284764224356675
0.2629730256847808,3.00454794670847,16.200874721034065,7.692358145377645
0.2930185051518655,2.8898755160994276,16.27779830248784,7.647651556370627
0.3219172603128598,2.7562169897702073,16.354274818051547,7.594775579887354
0.3494794302105618,2.6046477874222655,16.430222573850422,7.534345156031526
0.3755259080847845,2.4364481012650114,16.505566025410737,7.46719208127183
0.3998903890974346,2.2530811311225767,16.580237946223455,7.3943727131358985
0.4224212004086603,2.0561573934394866,16.654181673354813,7.3171607287289975
0.4429827743430552,1.8473865777394258,16.727353280642102,7.237025376825559
0.46145664012044946,1.6285201212626998,16.799723534410358,7.15559777834154
0.47774184133307646,1.4012888052235628,16.871279512193773,7.074629447409972
0.49175472938531206,1.1673400622287378,16.94202580666787,6.995948091478723
0.5034281300075995,0.9281793112121991,17.011985287582657,6.921415845269513
0.5127099231197214,0.6851186450309347,17.081199446035352,6.852894511402217
0.5195611095700308,0.439234826298941,17.149728391149374,6.792221351910292
0.5239534578330202,0.19133706430484584,17.217650604668478,6.7411977804190375
0.5258668284760686,-0.058056324701113854,17.28506258247267,6.701592205124029
0.5252862652290574,-0.30873438516630425,17.35207850452391,6.6751574620406515
0.5221989213773943,-0.5608059324079726,17.418830079144318,6.663662866355734
0.5165908620533146,-0.8147112367988805,17.485466707807873,6.668940929899528
0.5084437496853258,-1.0712366163469138,17.55215611710687,6.69294921960254
0.49773138352185664,-1.3315357447535172,17.619085609302893,6.737848598928184
0.4844160260743215,-1.5971615764341613,17.686464095292173,6.806100090968977
0.46844441030997985,-1.8701127625301914,17.754525096201863,6.900583624730959
0.44974328268467795,-2.1528980237393753,17.823530932449174,7.024742535154978
0.4282143024472842,-2.4486204198636963,17.893778357800723,7.182756852795177
0.40372809824864725,-2.761078993683152,17.965605926328674,7.379743689614121
0.3761173083118157,-3.0948735674541155,18.039403363224814,7.621968590255273
0.3451685726372746,-3.4554695162932014,18.115623049127368,7.917013896828204
0.31061387747434255,-3.8491100866747963,18.19479318809565,8.273757195983228
0.2721227766075946,-4.282302683319836,18.277530760055484,8.7017930455479
0.22929974977439624,-4.760245202885615,18.36454869051096,9.209433906875956
0.18169729774554008,-5.282819327594977,18.45664302957972,9.798396344961782
0.12886910446959032,-5.835583320978921,18.554626993029338,10.45159419988299
0.07051327125980111,-6.372754214463293,18.659142935028168,11.109768245046615
