th1 (rad),w1 (rad/s),th2 (rad),w2 (rad/s),a1 (rad/s^2),a2 (rad/s^2)
1.56918519213356,2.695240106233916,0.9700535005004582,1.0676965783287042,-12.860079602982932,6.632542113000706
1.5961375931958992,2.5666393102040868,0.9807304662837453,1.1340219994587113,-12.594969674407698,5.94440168365109
1.62180398629794,2.44068961346001,0.9920706862783324,1.1934660162952222,-12.3386582912843,5.275973552159521
1.64621088243254,2.317303030547167,1.0040053464412846,1.2462257518168174,-12.09168032935759,4.631545556021752
1.6693839127380117,2.196386227253591,1.0164676039594527,1.2925412073770348,-11.854106961401827,4.0140866535571
1.6913477750105477,2.077845157639573,1.029393016033223,1.3326820739126057,-11.625746262951624,3.425589761577528
1.7121262265869435,1.9615876950100566,1.0427198367723491,1.366937971528381,-11.406281175532413,2.8673256628261914
1.731742103537044,1.8475248832547324,1.056389216487633,1.3956112281566428,-11.195361532477689,2.3400306570559173
1.7502173523695912,1.7355712679299555,1.0703453287691993,1.419011534727202,-10.992662927227355,1.8440454183208301
1.7675730650488908,1.625644638657682,1.0845354441164714,1.4374519889104105,-10.797922005207612,1.3794181839352906
1.7838295114354676,1.5176654186056058,1.0989099640055755,1.4512461707497635,-10.610955261011554,0.945981970697182
1.7990061656215237,1.4115558659954903,1.1134224257130731,1.4607059904567352,-10.43166651975209,0.5434128881896143
1.8131217242814786,1.3072392007979694,1.1280294856176405,1.4661401193386314,-10.26004685625409,0.1712746526150553
1.8261941162894582,1.2046387322354284,1.1426908868110268,1.467852865864782,-10.096169649085994,-0.1709470448834834
1.8382405036118123,1.1036770357445684,1.1573694154696745,1.4661433954159473,-9.940182687681355,-0.48381771751266994
1.849277273969258,1.004275208867755,1.172030849423834,1.4613052182408206,-9.792298678633884,-0.7679329744708538
1.8593200260579354,0.9063522220814161,1.1866439016062422,1.453625888496112,-9.65278507725337,-1.0239018369542505
1.8683835482787496,0.8098243713088824,1.2011801604912034,1.4433868701265695,-9.521953861905889,-1.2523335818933066
1.8764817919918384,0.7146048326898236,1.215614029192469,1.4308635343076364,-9.400151641326634,-1.4538274968332612
1.8836278403187365,0.6206033162765572,1.2299226645355454,1.4163252593393036,-9.287750316666964,-1.6289651312816587
1.8898338734815021,0.5277258131098875,1.2440859171289385,1.400035608026487,-9.185138393975063,-1.7783047781563157
1.895111131612601,0.4358744291701369,1.2580862732092033,1.3822525602449238,-9.092712946744934,-1.9023780318282952
1.8994698759043025,0.34494729970268756,1.2719087988116526,1.363228779926641,-9.01087215272159,-2.001688360142027
1.9029193489013294,0.2548385781754717,1.2855410866109191,1.3432118963252206,-8.940008267060746,-2.0767117068115657
1.9054677346830842,0.16543849550486422,1.2989732055741714,1.322444779257105,-8.880500839447786,-2.1278992154307117
1.9071221196381327,0.07663348711038637,1.3121976533667425,1.301165787102798,-8.832709931187166,-2.1556822429692617
1.9078884545092365,-0.011693612201485293,1.3252093112377705,1.2796089646731053,-8.796969035666846,-2.1604799137839934
1.9077715183872217,-0.09966330255815375,1.3380054008845015,1.2580041655352654,-8.773577348696614,-2.1427095585980913
1.9067748853616402,-0.1873990760451199,1.3505854425398542,1.2365770699492844,-8.76279097133201,-2.1028004894325756
1.904900894601189,-0.27502698575844,1.362951213239347,1.2155490650549587,-8.764812554962965,-2.041211682875356
1.9021506247436046,-0.3626751113080696,1.3751067038898968,1.195136948226205,-8.779778815729543,-1.9584540806040605
1.8985238736305239,-0.45047289946536506,1.3870580733721587,1.1755524074201644,-8.807745253360716,-1.85511836566635
1.8940191446358703,-0.5385503519989723,1.3988135974463602,1.157001223763501,-8.848667311417547,-1.7319092299389292
1.8886336411158806,-0.6270370251131477,1.4103836096839952,1.1396821314641117,-8.902377118582162,-1.5896873010455013
1.882363270864749,-0.7160607962989693,1.4217804309986364,1.1237852584536567,-8.96855486677616,-1.4295200258627918
1.8752026629017593,-0.8057463449667309,1.4330182835831728,1.1094900581950289,-9.046693832732451,-1.252742880065066
1.867145199452092,-0.8962132832940555,1.4441131841651231,1.0969626293943782,-9.13605806849395,-1.061032238617737
1.8581830666191514,-0.9875738639789949,1.455082810459067,1.0863523070082008,-9.23563192298592,-0.8564910261524393
1.8483073279793616,-1.0799301832088541,1.465946333529149,1.0777873967466765,-9.34406088248056,-0.6417477628785183
1.8375080261472732,-1.1733707920336598,1.4767242074966156,1.0713699191178914,-9.45958382925838,-0.4200686877996587
1.8257743182269366,-1.2679666303262436,1.4874379066877945,1.0671692322398947,-9.579957839094886,-0.19548109359971827
1.8130946519236741,-1.3637662087171925,1.4981095990101934,1.0652144213038974,-9.702378215554509,0.027096368373466927
1.7994569898365023,-1.4607899908727375,1.5087617432232323,1.065485384987632,-9.823398742845665,0.24172407983631375
1.784849089927775,-1.559023978301194,1.5194165970731086,1.0679026257859952,-9.938860243807301,0.4413248536150133
1.769258850144763,-1.6584125807392671,1.5300956233309686,1.0723158743221453,-10.0438394614086,0.6175985175829125
1.7526747243373704,-1.7588509753533532,1.54081878207419,1.0784918594979744,-10.13263482308186,0.7609926448044192
1.7350862145838368,-1.8601773235841719,1.5516037006691699,1.0861017859460187,-10.198810198939038,0.8607612115228773
1.7164844413479952,-1.9621654255735623,1.56246471852863,1.0947093980612475,-10.235321176149727,0.9051481512073238
1.6968627870922595,-2.0645186373350595,1.5734118125092424,1.1037608795733207,-10.23474882091846,0.8817336713183372
1.676217600718909,-2.166866125544244,1.5844494213049756,1.112578216286504,-10.189660966114262,0.7779742759592233
1.6545489394634665,-2.2687627352053865,1.5955752034678405,1.1203579590460964,-10.093108174817845,0.5819489166638196
1.6318613121114127,-2.369693816953565,1.6067787830583016,1.1261774482127345,-9.939238959945817,0.2832909874588944
1.6081643739418772,-2.4690862065530235,1.6180405575404289,1.1290103580873234,-9.723987240524485,-0.12576019430185392
1.583473511876347,-2.5663260789582685,1.629330661121302,1.1277527561443048,-9.445749084107284,-0.6493075837512424
1.5578102510867644,-2.6607835697993414,1.640608188682745,1.1212596803067925,-9.10593508652501,-1.2869092820623627
1.5312024153887709,-2.7518429206645916,1.651820785485813,1.1083905874861688,-8.709272366264015,-2.0330410589405554
1.503683986182125,-2.8389356443272318,1.6629046913606746,1.0880601768967633,-8.263748365148153,-2.877069665438695
1.4752946297388527,-2.9215731279787134,1.6737852931296422,1.0592894802423762,-7.780142315504389,-3.8038229077509493
1.4460788984590656,-2.9993745511337573,1.684378187932066,1.0212512511648668,-7.271171146723069,-4.794727046051312
1.416085152947728,-3.072086262600988,1.6945907004437146,0.9733039807043536,-6.750362976735295,-5.829357149055193
1.3853642903217183,-3.139589892368341,1.704323740250758,0.9150104092138017,-6.230834908651774,-6.887151996815874
1.353968391398035,-3.2018982414548587,1.713473844342896,0.846138889245643,-5.724170249431572,-7.949014583199993
1.3219494089834865,-3.2591399439491746,1.7219352332353526,0.766648743413643,-5.239557811200935,-8.998561394252725
1.2893580095439947,-3.311535522061184,1.729601720669489,0.6766631294711157,-4.783286226424312,-10.022880148451378
1.256242654323383,-3.3593683843254274,1.7363683519642001,0.576434327986602,-4.358604765643921,-11.012770815108786
1.2226489704801287,-3.4029544319818665,1.742132695244066,0.46630661983551414,-3.965894294244976,-11.96254245858169
1.18861942616031,-3.442613374924316,1.7467957614424212,0.3466811952496972,-3.6030529199839303,-12.869496648890383
1.154193292411067,-3.4786439041241555,1.7502625733949182,0.21798622876079338,-3.265992615866998,-13.733243126327547
1.1194068533698254,-3.5113038302828254,1.7524424356825261,0.08065379749751789,-2.9491579353283552,-14.554975358107317
1.0842938150669972,-3.540795409636109,1.7532489736575012,-0.06489595608355528,-2.6460044128675584,-15.336798397969904
1.0488858609706362,-3.5672554537647847,1.7526000140966655,-0.21826394006325434,-2.3494022391720817,-16.081163272018223
1.0132133064329882,-3.5907494761565055,1.750417374696033,-0.37907557278343657,-2.05195397237974,-16.790430026479267
0.9773058116714232,-3.611269015880303,1.7466266189681987,-0.5469798730482293,-1.7462309234386384,-17.466559254057955
0.9411931215126201,-3.628731325114689,1.7411568202377163,-0.7216454655888088,-1.4249416722635868,-18.110919193574002
0.9049058082614733,-3.642980741837325,1.7339403655818282,-0.9027546575245489,-1.0810495075765538,-18.724190260714916
0.8684760008431001,-3.6537912369130905,1.7249128190065828,-1.089996560131698,-0.7078553114243047,-19.306348518392937
0.8319380884739691,-3.6608697900273337,1.7140128534052659,-1.2830600453156276,-0.2990601354602953,-19.856711863078356
0.7953293905736958,-3.6638603913819368,1.7011822529521097,-1.4816271639464111,0.15118141835174861,-20.374035942641573
0.7586907866598764,-3.6623485771984194,1.6863659813126455,-1.685367523372827,0.6482091979484745,-20.856650003303546
0.7220673008878923,-3.655866485218935,1.6695123060789172,-1.8939340234058624,1.196802167370862,-21.302625442876298
0.6855086360357029,-3.6438984635452263,1.6505729658448587,-2.1069602778346255,1.8011177762974138,-21.709971606149452
0.6490696514002506,-3.625887285782252,1.6295033630665123,-2.32405999389612,2.4646264367523285,-22.076854275250362
0.6128107785424282,-3.601241021414729,1.6062627631275512,-2.5448285366486236,3.190043492382827,-22.40183246925174
0.5767983683282809,-3.5693405864909007,1.580814477761065,-2.768846861341141,3.9792626565975073,-22.68410870909284
0.5411049624633719,-3.5295479599249258,1.5531260091476538,-2.9956879484320695,4.833296057787882,-22.923786976515366
0.5058094828641226,-3.481214999347047,1.523169129663333,-3.224925818197223,5.752226677974031,-23.12213133993071
0.47099733287065215,-3.4236927325673068,1.4909198714813607,-3.45614713159653,6.735178966351772,-23.281816743102727
0.4367604055449791,-3.356340942903789,1.4563584001653955,-3.6889652990275574,7.780312550549474,-23.407161795798245
0.4031969961159412,-3.2785378173982944,1.41946874717512,-3.9230369169855397,8.884841980380807,-23.504331496079324
0.3704116179419582,-3.189689397594486,1.3802383780052645,-4.158080231946333,10.045081944108222,-23.581495388004075
0.33851472396601334,-3.089238578153404,1.3386575756858012,-4.393895185826374,11.256511863080545,-23.64892314476589
0.3076223381844793,-2.9766734595225985,1.2947186238275374,-4.630384417274033,12.513845411419158,-23.71899390766541
0.2778556035892533,-2.8515350054084068,1.248414779654797,-4.867574356350688,13.81107811622521,-23.806086088795787
0.24934025353516925,-2.713424224246155,1.1997390360912903,-5.105635217238646,15.14146786890045,-23.926297773463858
0.2222060112927077,-2.5620095455571503,1.1486826839189037,-5.344898194973284,16.497375906884333,-24.09691957682086
0.1965859158371362,-2.397035786488307,1.095233701969171,-5.585867390741493,17.869854906147275,-24.3355344449587
0.17261555797225311,-2.2183372374268346,1.039375028061756,-5.82922273519108,19.247809205428695,-24.658541451714573
0.15043218559798477,-2.025859145372548,0.9810828007098452,-6.075808149708226,20.61646008663891,-25.07877778773354
0.13017359414425927,-1.8196945445061588,0.9203247192127629,-6.326595927585561,21.954715086666635,-25.601726266850182
0.11197664869919768,-1.6001473936394923,0.8570587599369073,-6.582613190254063,23.230857478333128,-26.219530220591135
0.09597517476280276,-1.367838818856161,0.7912326280343667,-6.844808492459975,24.395756584448186,-26.901707695055297
0.08229678657424115,-1.123881253011679,0.7227845431097669,-7.113825569410528,25.372641170873006,-27.58117216087827
0.07105797404412437,-0.870154841302949,0.6516462874156617,-7.38963729101931,26.042655407900835,-28.134290335144666
0.06235642563109488,-0.6097282872239407,0.5777499145054685,-7.670980194370757,26.226620351269336,-28.35516473321289
0.05625914275885547,-0.3474620837112473,0.501040112561761,-7.954531841702886,25.66705534286705,-27.929035612136943
0.052784521921742995,-0.0907915302825768,0.4214947941447321,-8.233822197824257,24.02263768990065,-26.420541923459936
0.05187660661891723,0.14943484661642972,0.33915657216648953,-8.498027617058856,20.90066798873814,-23.31082674458444
0.05337095508508152,0.3584415265038111,0.25417629599590097,-8.7311358845047,15.964364579879732,-18.133400244180834
0.05695537035011963,0.5180851723026084,0.16686493715085396,-8.912469886946509,9.134302338605204,-10.736326062877124
0.06213622207314572,0.6094281956886605,0.07774023828138887,-9.01983314757528,0.8189536677668514,-1.5857362907259471
0.06823050403003232,0.617617732366329,-0.012458093194363931,-9.03569051048254,-8.017101266345657,8.143848721297273
0.07440668135369562,0.5374467197028724,-0.10281499829918933,-8.954252023269568,-16.13098516689621,16.935065823743816
0.07978114855072434,0.3761368680339103,-0.192357518531885,-8.78490136503213,-22.52006437209838,23.602814763882158
0.08354251723106344,0.1509362243129265,-0.2802065321822063,-8.548873217393309,-26.78691020513305,27.75256656797984
0.08505187947419271,-0.11693287773840402,-0.3656952643561394,-8.27134755171351,-29.10543752647032,29.70886441883972
0.08388255069680867,-0.40798725300310723,-0.4484087398732745,-7.974258907525114,-29.936934984671165,30.128146386296486
0.0798026781667776,-0.7073566028498188,-0.5281513289485257,-7.672977443662148,-29.76743363301696,29.658040080251347
0.0727291121382794,-1.0050309391799885,-0.6048811033851471,-7.376397042859635,-28.980751191175795,28.784292824757355
0.06267880274647951,-1.2948384510917466,-0.6786450738137435,-7.088554114612061,-27.83730599450735,27.81610244891505
0.04973041823556204,-1.57321151103682,-0.7495306149598642,-6.810393090122911,-26.49827100703123,26.92643594449622
0.033998303125193835,-1.8381942211071325,-0.8176345458610933,-6.541128730677949,-25.057606180933966,26.198413981514385
0.01561636091412251,-2.0887702829164723,-0.8830458331678728,-6.279144590862805,-23.568007278668563,25.661011080163018
-0.0052713419150422144,-2.3244503557031577,-0.9458372790765008,-6.022534480061175,-22.0585686633258,25.31256484251203
-0.02851584547207379,-2.545036042336416,-1.0060626238771126,-5.769408831636055,-20.545790193898238,25.135096351444904
-0.05396620589543795,-2.750493944275398,-1.0637567121934732,-5.5180578681216055,-19.0400586600099,25.1026820424448
-0.08147114533819193,-2.940894530875497,-1.1189372908746893,-5.267031047697158,-17.549273542560265,25.186256167880508
-0.1108800906469469,-3.1163872663011,-1.171607601351661,-5.015168486018353,-16.08073621484865,25.3563607045054
-0.1420439633099579,-3.2771946284495863,-1.2217592862118445,-4.761604878973299,-14.642005080723024,25.584741975651518
-0.17481590959445376,-3.4236146792568167,-1.2693753350015775,-4.505757459216784,-13.24114673736734,25.84530232050383
-0.20905205638702193,-3.55602614663049,-1.3144329095937453,-4.247304436011746,-11.886646023860918,26.114682546106913
-0.24461231785332682,-3.6748926068690992,-1.3569059539538628,-3.986157610550676,-10.58713763768248,26.37261801198277
-0.28136124392201783,-3.780763983245924,-1.3967675300593696,-3.7224314304308486,-9.351061825808973,26.602138213256733
-0.31916888375447705,-3.874274601504014,-1.433991844363678,-3.4564100482982814,-8.186309465756853,26.7896418522674
-0.3579116297695172,-3.9561376961615826,-1.468555944846661,-3.188513629775607,-7.099897603794418,26.92486166356989
-0.397473006731133,-4.027136672199527,-1.500441081144417,-2.919265013139908,-6.0976995651646675,27.000726692565063
-0.4377443734531283,-4.088113667851173,-1.5296337312758161,-2.6492577462142575,-5.184241064648941,27.013128856444524
-0.47862551013164,-4.139956078497662,-1.5561263087379587,-2.379126457649812,-4.362563782827041,26.960602063953758
-0.5200250709166166,-4.183581716325933,-1.5799175733144568,-2.1095204370102745,-3.6341498846015114,26.84392385147218
-0.561860888079876,-4.219923215171948,-1.6010127776845595,-1.8410811984955526,-2.9988945706882597,26.66565015861151
-0.6040601202315955,-4.249912160878831,-1.619423589669515,-1.5744246969094375,-2.455108742291709,26.429592850782466
-0.6465592418403838,-4.274463248301748,-1.6351678366386093,-1.3101287684016127,-1.9995300282091346,26.14024666771104
-0.6893038743234013,-4.294458548583839,-1.6482691243226255,-1.0487263017245023,-1.627317587193719,25.802167563770613
-0.7322484598092397,-4.310731724455777,-1.6587563873398705,-0.7907046260867963,-1.3320041419713131,25.419298391846244
-0.7753557770537974,-4.32405176587549,-1.6666634336007384,-0.5365116421683338,-1.1053777270725664,24.994231503285764
-0.8185962947125524,-4.3351055431462155,-1.6720285500224217,-0.2865693271354761,-0.937266218455117,24.527392733165748
-0.8619473501440145,-4.344478205330767,-1.6748942432937763,-0.04129539980381863,-0.8152013262366489,24.01613024146518
-0.9053921321973222,-4.352630218593133,-1.6753071972918145,0.19886590261083317,-0.7239483447747568,23.45369958997571
-0.9489184343832535,-4.359869702040881,-1.6733185382657063,0.4334028985105903,-0.6449088553805064,22.828161112812772
-0.9925171314036624,-4.366318790594686,-1.6689845092806004,0.661684509638718,-0.5554441870318088,22.121259102907747
-1.0361803193096093,-4.3718732324650045,-1.6623676641842131,0.8828971006677955,-0.42823944223756627,21.307450888882023
-1.0798990516342593,-4.37615562688738,-1.653538693177535,1.0959716095566157,-0.23094394090484877,20.353414794381514
-1.123660607903133,-4.378465066296428,-1.642578977081969,1.2995057575004307,0.07351051692436998,19.21859591270131
-1.1674452585660973,-4.3777299611271845,-1.6295839195069646,1.491691716627444,0.5253179876728147,17.857616608266476
-1.211222558177369,-4.372476781250456,-1.6146670023406902,1.6702678827101087,1.1641956012367558,16.225569011296518
-1.2549473259898736,-4.360834825238088,-1.597964323513589,1.832523572823074,2.0231203808815477,14.287066239461055
-1.2985556742422544,-4.340603621429273,-1.5796390877853583,1.9753942352176845,3.119349737609685,12.029071446836205
-1.341961710456547,-4.309410124053176,-1.5598851454331815,2.0956849496860466,4.444002451857591,9.47562405139273
-1.3850558116970788,-4.2649700995346,-1.538928295936321,2.190441190199974,5.953391759465919,6.69987585749298
-1.4277055126924247,-4.205436181939941,-1.5170238840343213,2.2574399487749037,7.5668208669277615,3.8267352569541355
-1.469759874511824,-4.129767973270663,-1.4944494845465723,2.295707301344445,9.174959383774672,1.0203275617734573
-1.5110575542445308,-4.038018379432916,-1.4714924115331278,2.3059105769621797,10.659054012572607,-1.543957562002752
-1.55143773803886,-3.93142783930719,-1.448433305763506,2.2904710013421523,11.915426309503372,-3.714781746040722
-1.590752016431932,-3.8122735762121565,-1.4255285957500845,2.253323183881745,12.875966498810733,-5.394191084102018
-1.6288747521940536,-3.683513911224049,-1.4029953639112671,2.199381273040725,13.517017317134671,-6.550096672431688
-1.6657098913062942,-3.5483437380527025,-1.3810015511808598,2.1338803063164082,13.85517658055179,-7.209853169716451
-1.7011933286868213,-3.4097919722471848,-1.3596627481176957,2.0617817746192437,13.934502726142211,-7.441428935560667
-1.735291248409293,-3.2704469449857627,-1.3390449303715033,1.9873674852636372,13.811688630257422,-7.331645228139245
-1.7679957178591508,-3.1323300586831886,-1.3191712555188668,1.9140510329822447,13.544064093214503,-6.968513231189361
-1.7993190184459826,-2.9968894177510434,-1.3000307451890443,1.844365900670351,13.182259985612204,-6.430341699961871
-1.829287912623493,-2.8650668178949212,-1.2815870861823409,1.7800624836707324,12.767094685963812,-5.781005806445976
-1.8579385808024422,-2.7373958710352833,-1.2637864613456335,1.7222524256062726,12.32931033817871,-5.069406536800988
-1.885312539512795,-2.6141027676534963,-1.246563937089571,1.6715583602382627,11.89080169702269,-4.331156694310104
-1.91145356718933,-2.4951947506832695,-1.2298483534871882,1.6282467932951616,11.466377279893619,-3.591093128958579
