th1 (rad),w1 (rad/s),th2 (rad),w2 (rad/s)
5.409322389330929,2.758659685053427,4.085170910566813,0.5984764352232288
5.4369089861814635,2.8150562737252813,4.091155674919045,0.7378530782298637
5.465059548918716,2.8696356889418246,4.098534205701343,0.8826107829170641
5.493755905808134,2.922124685748578,4.1073603135305135,1.0327077136845013
5.522977152665621,2.9722147346120145,4.117687390667358,1.1880674198950534
5.55269930001174,3.0195607320024704,4.129568064866309,1.3485754453695287
5.582894907331765,3.063780136570782,4.143053819320004,1.514076213313409
5.6135327086974725,3.104452632358922,4.158194581453138,1.6843703413262756
5.644577235021061,3.1411204249542553,4.1750382848664005,1.8592125597761522
5.675988439270604,3.1732892768421626,4.193630410464162,2.0383104226699147
5.707721332039026,3.200430383238133,4.214013514690861,2.2213240117497506
5.739725635871407,3.221983178179002,4.236226754808358,2.4078668403338424
5.771945467653197,3.2373591414805145,4.260305423211697,2.597508161836861
5.804319059068002,3.2459466493479963,4.286280504830065,2.7897768775122507
5.836778525561481,3.2471168742669674,4.3141782736051875,2.984167217577603
5.869249694304151,3.240230693029395,4.344019945780963,3.1801463387699807
5.901652001234445,3.2246465056615286,4.375821409168663,3.3771639393932573
5.93389846629106,3.1997288036128304,4.409593048562595,3.574663940725808
5.965895754327188,3.1648572546858387,4.445339687969853,3.772098222895308
5.9975443268740465,3.1194359976183232,4.483060670198807,3.9689423367741905
6.02873868685023,3.0629027647399165,4.522750093566549,4.164713045114847
6.059367714497629,2.994737381425138,4.564397224017697,4.358987481272003
6.0893150883118805,2.9144691316555917,4.607987098830417,4.551423658772671
6.118459779628436,2.8216824359198145,4.653501335418144,4.741782026709547
6.146676603987634,2.716020267144928,4.70091915568524,4.9299477514757
6.173836806659084,2.5971847384665203,4.750218633199997,5.115953420658937
6.199808654043749,2.4649343392715606,4.801378167406586,5.30000191316949
6.224457997436464,2.319077379214604,4.854378186538281,5.482489258924739
6.247648771228611,2.1594613318224196,4.909203079127529,5.6640274109039535
6.269243384546835,1.9859579635215066,4.9658433532365684,5.8454669468026275
6.2891029641820495,1.798444417176164,5.024298022704595,6.027919757314775
6.307087408353811,1.5967808451125258,5.084577220277742,6.212781672374035
6.323055216804937,1.380785860493302,5.146705037001483,6.401754562127375
6.33686307540987,1.1502121993794565,5.210722582622757,6.5968664327247
6.348365197403664,0.9047269355852328,5.276691246950004,6.800485889452221
6.357412466759516,0.643904056889046,5.344696105844526,7.015323106315156
6.363851507328407,0.3672434342483344,5.414849336907677,7.244401407620127
6.367523941670891,0.07424135818169081,5.487293350983879,7.490968719609712
6.3682663552527075,-0.23544254742465603,5.562203038179976,7.758291438580852
6.365911929778461,-0.561643843301954,5.639785952565784,8.049227094877523
6.3602954913454415,-0.9030464218434764,5.720278223514559,8.365398147796405
6.351265027127007,-1.256029987114635,5.803932204992523,8.705688732168714
6.338704727255861,-1.6127633175602312,5.89098909231421,9.06370837723999
6.322577094080258,-1.958414196083647,5.98162617608661,9.424008731170971
6.302992952119421,-2.26800719518192,6.07586626339832,9.757712476803086
6.280312880167602,-2.505201078924233,6.17344338816635,10.020569528113525
6.25526086937836,-2.6276781384407735,6.273649083447486,10.15977538053436
6.228984087993952,-2.602899616167118,6.3752468372528295,10.134666004970306
6.202955091832281,-2.4276289103121234,6.476593497302533,9.942383299211228
6.178678802729159,-2.1328478623332248,6.576017330294645,9.623807751866515
6.157350324105827,-1.7665382913094667,6.67225540781331,9.240143462787811
6.139684941192732,-1.3715433298376543,6.764656842441188,8.843821848688439
6.1259695078943555,-0.9756855255816697,6.853095060928073,8.466401018651482
6.116212652638539,-0.5932675337324855,6.937759071114588,8.121496623534975
6.1102799773012135,-0.2300682550266695,7.018974037349937,7.811883751711369
6.107979294750947,0.11253742769755548,7.097092874867051,7.535065576085613
6.109104669027922,0.4351062438726273,7.172443530627907,7.286486904300172
6.113455731466648,0.7388512371965814,7.245308399670909,7.061118135485131
6.120844243838614,1.0250483775655457,7.315919581025761,6.854147648614084
6.131094727614269,1.2947922332379207,7.384461057511902,6.661239714387928
6.144042649946648,1.5489199714190225,7.4510734546557815,6.478597574562248
6.159531849660839,1.7880126390752005,7.515859430401404,6.302947491317277
6.177411976051591,2.0124295391662885,7.578888905314577,6.131496594161666
6.197536271443254,2.2223547256284646,7.640203871256194,5.961886998976471
6.219759818699539,2.417845808762536,7.699822741245959,5.792154530912918
6.243938276787165,2.5988805273795776,7.757744286555088,5.6206940300536425
6.269927082060961,2.765398978709505,7.813951226855624,5.446230551256835
6.297581071848056,2.9173405079059984,7.8684135323681925,5.2677948293770855
6.326754476927116,3.0546747755008083,7.921091480661963,5.08470124096838
6.357301224682124,3.17742679087234,7.971938493071647,4.896526713221742
6.389075492590847,3.285695881565842,8.020903760203865,4.703089397515587
6.421932451406506,3.379668727427856,8.067934654179021,4.50442633197029
6.455729138680785,3.4596267443697903,8.112978917498724,4.300769708412727
6.490325406124483,3.525948253282383,8.15598661458285,4.0925217028697825
6.525584888657306,3.579106005255386,8.19691183161155,3.8802281079563183
6.56137594870986,3.61966074392217,8.235714112691113,3.6645512124805917
6.597572556149082,3.648251561168352,8.27235962481592,3.446242507371589
6.634055071760765,3.6655838393645834,8.306822049889636,3.226115862026729
6.670710910154411,3.6724155715528575,8.339083208509903,3.005021819559904
6.70743506586994,3.6695428138972055,8.369133426705503,2.783823613757831
6.744130494008912,3.6577849578846675,8.39697166284308,2.5633754265341526
6.780708343587759,3.6379704203055097,8.422605417108421,2.3445032941744337
6.817088047790814,3.610923244543763,8.446050450050166,2.1279889450052605
6.853197280236252,3.5774509946077404,8.467330339500219,1.914556720568008
6.888971790182329,3.5383342104378306,8.486475906705898,1.7048636058324302
6.924355132286707,3.494317585218835,8.503524542764223,1.4994922787469505
6.959298308138895,3.4461029274309136,8.518519465551693,1.2989469910316476
6.993759337413205,3.394343885680557,8.531508935462009,1.1036520142668007
7.027702776270011,3.3396423451588393,8.542545455604676,0.9139523298549235
7.061099199721599,3.2825463518320257,8.551684978903225,0.7301162084374586
7.093924663239919,3.22354938400471,8.5589861409876,0.552339312413128
7.126160157079966,3.1630907695887105,8.56450953411173,0.3807499617252424
7.157791064775854,3.1015570394301144,8.568317033728983,0.2154152246452363
7.188806635170155,3.0392840101037875,8.570471185975435,0.056347528059368324
7.219199475271193,2.9765594011862806,8.571034661256029,-0.09648847808856384
7.248965069283056,2.9136258096900725,8.570069776475142,-0.24316902361572565
7.278101327379956,2.850683885806394,8.567638086238984,-0.383804464977645
7.3066081662380205,2.7878955774020424,8.563800041589207,-0.518532810176971
7.334487122012041,2.7253873342779644,8.558614713487438,-0.6475136164822641
7.36174099535482,2.6632531858649657,8.552139577322615,-0.770922321396324
7.38837352721347,2.6015576270411502,8.544430354108652,-0.8889450385196875
7.414389103483881,2.5403382656985056,8.535540903723454,-1.0017738269732461
7.439792486140866,2.479608202455448,8.525523165453722,-1.1096024258351813
7.4645885681654205,2.4193581276429033,8.51442714119537,-1.21262243337839
7.48878214944185,2.3595581337012526,8.502300916861586,-1.311019904434287
7.512377730778862,2.300159252858628,8.489190717817243,-1.404972337601874
7.535379323307448,2.241094740935606,8.475140994441224,-1.494646026932598
7.557790270716804,2.182281138874601,8.460194534171897,-1.5801937598511264
7.57961308210555,2.1236191546201186,8.444392596573387,-1.6617528541297426
7.600849273651751,2.064994419658917,8.427775068032089,-1.7394435413755562
7.62149921784834,2.0062781870366546,8.410380632618333,-1.8133677222059543
7.641561999718707,1.9473280508371844,8.392246955396272,-1.8836081382448275
7.661035280227079,1.8879887802993898,8.373410874013825,-1.950228026907824
7.679915168030073,1.8280933736685718,8.353908593744746,-2.0132713445396178
7.698196101766759,1.7674644454567734,8.333775880299351,-2.0727636587313207
7.715870746221326,1.7059160630680366,8.313048243712037,-2.128713817405409
7.732929906852006,1.6432561409769701,8.291761105537983,-2.1811164953348015
7.749362468261776,1.5792894786068674,8.269949940584635,-2.229955692436087
7.765155363047844,1.5138214877400087,8.247650383660273,-2.2752092071177197
7.780293577925244,1.4466625940735844,8.224898291589096,-2.316854028785931
7.79476020386598,1.3776332156518052,8.201729751301237,-2.3548724869173263
7.8085365360224985,1.3065691231085337,8.178181026432064,-2.3892588666848256
7.8216022272535835,1.2333268834389108,8.154288437765215,-2.4200260675695393
7.833935496087973,1.1577889967302772,8.13008817708952,-2.4472117641695634
7.845513386055275,1.0798682743781702,8.105616059447826,-2.4708834553588748
7.856312068799057,0.9995109984000098,8.080907224894236,-2.4911417867326247
7.866307178783057,0.9166984595737407,8.05599580702691,-2.5081216215362008
7.875474163378795,0.8314466007269629,8.030914590811548,-2.521990520438506
7.883788629386064,0.7438036784230833,8.005694685607164,-2.5329445524580385
7.8912266661702954,0.6538460738908154,7.980365240082584,-2.5412016589385
7.897765126909204,0.5616725944708869,7.954953223493199,-2.546993077136364
7.903381852853912,0.4673977713786568,7.9294832927218355,-2.550553546832245
7.908055830567699,0.3711447489411519,7.9039777572535135,-2.552111133461466
7.911767278057111,0.27303836248970925,7.878456645918899,-2.5518774898367615
7.914497661682008,0.17319892387394187,7.852937871020531,-2.5500392576451385
7.916229650920747,0.0717370977893186,7.82743747844408,-2.546751112774979
7.916947021898641,-0.031249910619984042,7.80196996731633,-2.5421307286421313
7.916634522792441,-0.13568079609771383,7.776548660029909,-2.536255710833144
7.915277714831464,-0.2414912944983456,7.751186102921578,-2.5291623757388075
7.91286280188648,-0.3486341929453273,7.7258944791641895,-2.5208461219262714
7.909376459957027,-0.4570784306908134,7.700686017944927,-2.5112630783381396
7.904805675650119,-0.5668075294375255,7.6755733871615455,-2.5003327003261453
7.899137600355743,-0.677817580919534,7.650570060158284,-2.487941009882813
7.892359424546548,-0.7901149904747317,7.625690650059456,-2.4739442258661812
7.8844582746418,-0.9037141370311635,7.600951207800794,-2.4581725908424703
7.875421133271489,-1.0186350691336163,7.576369481892369,-2.440434263854222
7.865234782580153,-1.1349013177544933,7.551965139253827,-2.4205192068428025
7.853885769402607,-1.2525378719432827,7.527759947185399,-2.398203043520206
7.841360390683175,-1.3715693335104724,7.503777916750197,-2.373250912400216
7.82764469734807,-1.4920182414286907,7.480045407626195,-2.3454213712112555
7.812724514933783,-1.613903534300438,7.456591193914082,-2.314470439675631
7.796585479590779,-1.7372390985760493,7.433446489517325,-2.2801558937383035
7.779213088605019,-1.8620323295764167,7.4106449305799424,-2.2422419489649337
7.760592765309255,-1.9882826101811695,7.3882225110902935,-2.2005044961160722
7.740709939207443,-2.115979586822336,7.366217466129132,-2.1547370797109444
7.7195501433392195,-2.245101092967861,7.344670095332023,-2.1047578421780138
7.697099132409541,-2.37561053580488,7.323622516910243,-2.0504176927405258
7.673343027051492,-2.507453522266943,7.303118339982838,-1.9916100011919289
7.648268491828822,-2.6405534570116136,7.283202239970919,-1.9282821600430828
7.621862957258706,-2.7748058005258085,7.263919418370488,-1.8604493990642494
7.594114899253448,-2.910070636430466,7.245314924379845,-1.7882112641959442
7.5650141928891435,-3.0461631743029187,7.227432811737886,-1.7117711712164823
7.534552561146114,-3.182841826007202,7.2103151000257215,-1.6314593861478635
7.502724142886042,-3.3197935673486976,7.194000506164243,-1.5477596278796633
7.469526207212556,-3.4566164726192716,7.178522909885446,-1.4613391754572744
7.434960042486363,-3.5927996397541855,7.163909518130874,-1.373081816875104
7.399032046088821,-3.7277012696430103,7.150178699962122,-1.2841221109504326
7.361755033392391,-3.86052648132758,7.1373374788526185,-1.1958781713650266
7.323149768579115,-3.9903075583321748,7.125378697138968,-1.1100784980927845
7.283246692995793,-4.115890668514342,7.11427791215804,-1.028776380823411
7.24208778631065,-4.235934462853379,7.103990148349806,-0.9543434196793069
7.199728441682116,-4.348926891770842,7.094446714153013,-0.8894324257557308
7.1562391727644075,-4.453226387733739,7.085552389895455,-0.8369004151920818
7.11170690888707,-4.54713143103708,7.077183385743535,-0.7996858116731027
7.0662355945767,-4.628977847066375,7.069186527626804,-0.7806411991881878
7.019945816106036,-4.697256172528371,7.061380115634922,-0.7823337210547626
6.9729732543807526,-4.75073359353702,7.053556778424374,-0.806837240048287
6.925465918445382,-4.788559151344625,7.045488406023892,-0.85554941003524
6.877580326931936,-4.810330342495428,7.0369329119235395,-0.9290680487882106
6.829477023506982,-4.816105668886543,7.0276422314356575,-1.0271519284811061
6.781315966818116,-4.806359850216493,7.017370712150846,-1.1487730500423452
6.733252368315951,-4.781892049115164,7.005882981650423,-1.2922468240762655
6.6854334478248,-4.743707426805318,6.992960513409661,-1.4554109963797977
6.637996373556747,-4.6928953786802285,6.978406403445863,-1.6358186518194413
6.591067419769944,-4.6305240110573385,6.962048216927669,-1.8309153086154244
6.5447621796593705,-4.557562627563093,6.943739063841515,-2.038181036986653
6.49918655338374,-4.474835718893851,6.923357253471648,-2.255230570179027
6.454438196194801,-4.383005690447059,6.900804947769858,-2.479873758107005
6.410608139290331,-4.282578192799376,6.876006210188788,-2.7101440007508737
6.367782357362337,-4.173923067444448,6.84890477018128,-2.9443038931077665
6.3260431266878925,-4.057304677745525,6.819461731250202,-3.1808364609539312
6.2854700799104375,-3.9329168794847336,6.787653366640662,-3.418428338690362
6.2461409111155906,-3.800919489685181,6.7534690832537585,-3.655948945999288
6.208131716218738,-3.6614745269559723,6.7169095937937655,-3.892427650549536
6.171516970949178,-3.5147816258467515,6.67798531728827,-4.127029238367424
6.136369154690711,-3.3611128909427506,6.636715024904595,-4.359026752398631
6.1027580257812835,-3.2008481110752207,6.593124757380609,-4.587769833609382
6.070749544670531,-3.034511744828078,6.5472470590445155,-4.8126460403240845
6.04040442722225,-2.86281341333087,6.499120598641275,-5.033032214928687
6.011776293088942,-2.6866937160140236,6.448790276491988,-5.248232892917669
5.984909355928801,-2.507376829100564,6.3963079475628115,-5.457403234287966
5.959835587637795,-2.3264302146766815,6.3417339152199315,-5.659455433607634
5.936571285491029,-2.145829345006657,6.285139360883855,-5.852950714712783
5.915112992040962,-1.9680209851584396,6.226609853736727,-6.035984729734919
5.895432782189378,-1.7959717202976433,6.166250006439379,-6.206083281176016
5.877473064986401,-1.6331791706610226,6.104189173627619,-6.360137766610243
5.861141273279791,-1.4836135484091864,6.040587795961517,-6.494423343567082
5.8463051377956985,-1.3515518050798607,5.975643562525846,-6.604751134132637
5.8327896197449,-1.2412741270696863,5.909596051184519,-6.686797514029333
5.820376878474203,-1.1566223770271222,5.842728076044226,-6.7366159107354155
5.808810654703932,-1.1004743872139835,5.775361916936872,-6.751266256033763
5.7978059108317925,-1.074250568058037,5.7078492543765345,-6.729415309514722
5.787063405151212,-1.0776032310679016,5.640555101281387,-6.671716045697898
5.776287372840533,-1.108407090374303,5.573837940824408,-6.580815277346116
5.76520330193679,-1.1630702213464983,5.508029788050947,-6.460967068213336
5.7535725997233245,-1.23706834177208,5.443420117368813,-6.317378831201893
5.741201916305604,-1.3255392822430008,5.380246329056794,-6.155498785740193
5.727946523483174,-1.4237889073916337,5.318691341199392,-5.980430286969774
5.713708634409258,-1.5276286349526813,5.258887038329694,-5.796566704110534
5.698432348059732,-1.6335384618092583,5.2009213712885884,-5.6074456913780475
5.682096963441639,-1.7386949545389165,5.144846914374808,-5.415765880958965
5.66471001389625,-1.8409165144475887,5.090689255565218,-5.223496129833613
5.646300848751774,-1.9385704549961797,5.038454294266882,-5.03202038151607
5.626915144201812,-2.0304716321604777,4.988134090451721,-4.842281888785229
5.606610427880207,-2.1157887807529594,4.939711271563869,-4.654908559512351
5.585452540072677,-2.193965218784915,4.8931621859687455,-4.470313256999973
5.563512887884828,-2.264655074244264,4.848459053398746,-4.28876954405918
5.540866337142385,-2.327673531097699,4.805571357958154,-4.11046630671209
5.517589601831409,-2.3829586430972207,4.764466694891033,-3.9355455089689544
5.4937600154004365,-2.430542201014277,4.725111239801343,-3.76412710594996
5.469454593390294,-2.4705274591481454,4.687469968741843,-3.596324516505715
5.444749318798813,-2.5030719604604594,4.651506723576786,-3.4322533540488696
5.4197185991942085,-2.5283741187791655,4.617184190036298,-3.2720354775675475
5.3944348580064165,-2.5466625714490174,4.584463835260622,-3.115799899801986
5.368968232291927,-2.5581875955109554,4.553305836262602,-2.9636816779407105
5.343386356336818,-2.5632140908419285,4.523669019483195,-2.8158195984102075
5.3177542154283985,-2.562015786431155,4.495510823499093,-2.6723532318436582
5.292134057564087,-2.5548704335891532,4.468787291180656,-2.5334197590610414
5.266585353228195,-2.542055823497353,4.443453093590046,-2.3991508390899345
5.241164794993222,-2.5238465152329064,4.419461585199146,-2.269669694514939
5.215926329840893,-2.5005111913974147,4.396764888253997,-2.1450885192685645
5.190921217926919,-2.472310577179335,4.375314003061311,-2.0255062631184955
5.166198112155126,-2.4394958691321857,4.355058940430125,-1.911006810968972
5.141803153463804,-2.4023076251018423,4.335948872320436,-1.8016575502573253
5.117780077212785,-2.3609750686917725,4.317932296817863,-1.6975083035917278
5.094170326525868,-2.3157157618868456,4.300957213781945,-1.598590594314223
5.071013168906999,-2.2667355989675437,4.284971307838803,-1.5049172082547202
5.048345812917324,-2.214229074301049,4.269922135756255,-1.4164820142246526
5.026203522174313,-2.1583797764172883,4.255757315614009,-1.3332600076579157
5.004619724410141,-2.0993610612236737,4.24242471553743,-1.2552075452904918
4.983626113797904,-2.037336858425527,4.229872640084525,-1.1822627430787693
4.963252745213649,-1.972462567266128,4.2180500126537375,-1.1143460140298087
4.9435281195409875,-1.9048860005918362,4.2069065525134395,-1.0513607267303942
4.924479259535069,-1.8347483399513913,4.196392945246136,-0.9931939687271657
4.906131776135555,-1.7621850688832534,4.186461005558864,-0.9397174012754531
4.888509925446723,-1.6873268566217319,4.17706383154611,-0.8907881932229654
4.871636656880505,-1.6103003700143652,4.1681559496138805,-0.8462500219399475
4.855533653180362,-1.5312289973049888,4.159693449394481,-0.8059341283830534
4.840221363207312,-1.4502334733817113,4.15163410811065,-0.7696604118213427
4.825719028473495,-1.3674324018752233,4.143937503992436,-0.7372385477724015
4.812044704454743,-1.2829426748685424,4.136565118514713,-0.7084691106546476
4.7992152777060575,-1.1968797956991046,4.129480427408167,-0.6831446809309305
4.787246479749067,-1.109358114178528,4.122648980598857,-0.6610509154478863
4.776152898607282,-1.0204909863497016,4.116038471444378,-0.6419675595575097
4.765947988743784,-0.9303908725317743,4.109618795848803,-0.6256693806493367
4.756644080018466,-0.8391693878311501,4.1033621020423094,-0.6119270050256985
4.748252386140154,-0.7469373185599032,4.097242831992053,-0.6005076436060262
4.740783012954555,-0.6538046162196196,4.0912377555559925,-0.5911756966223047
