th1 (rad),w1 (rad/s),th2 (rad),w2 (rad/s)
2.702558475087814,-2.8616138737042585,3.870444161736091,2.9076840061470595
2.6739423363507715,-2.8624759131842787,3.8995210017975617,2.8979603006103103
2.6453175772189286,-2.865675646673639,3.9285006048036646,2.889306585354177
2.616660820752192,-2.8712097379731527,3.9573936706572064,2.8815296807343125
2.5879487233724605,-2.8790913079001843,3.9862089674645493,2.8744315561015816
2.5591578102934585,-2.889351808449181,4.014953283025565,2.8678083622669983
2.5302642922089666,-2.9020427058547704,4.043631366648235,2.861448688428098
2.501243865150419,-2.917237114341646,4.0722458535325154,2.8551312082765863
2.4720714940070025,-2.935031479827788,4.1007971656152815,2.8486218335926248
2.4427211792087244,-2.955547376365736,4.129283383951208,2.841670466956076
2.413165705445067,-2.9789334433979673,4.157700088620769,2.834007437859987
2.3833763710110873,-3.0053674542930544,4.186040162999369,2.825339719864079
2.353322696468157,-3.035058460765834,4.214293560198009,2.815347064048494
2.3229721118604987,-3.0682488972650286,4.242447030838495,2.803678252120154
2.292289622887848,-3.1052164463942162,4.2704838133596965,2.7899477803305164
2.261237458423906,-3.146275351344443,4.2983832911630016,2.7737334454697025
2.2297747049104615,-3.19177670288174,4.3261206256176985,2.754575532410974
2.197856937881644,-3.242107014415796,4.353666380941808,2.7319786168824245
2.1654358677374863,-3.2976841180620418,4.380986167110633,2.705417414135568
2.132459026556866,-3.3589490623545553,4.408040341251988,2.6743486327148314
2.0988695359333205,-3.426352278302529,4.434783827579136,2.6382314200643084
2.064606013150295,-3.500331845065632,4.461166141779779,2.5965596566290654
2.029602694699639,-3.581281323754581,4.48713173834607,2.5489099315229318
1.9937898814620931,-3.6695045169968465,4.5126208376612995,2.495009253043728
1.9570948362921246,-3.765154949854454,4.537570930191737,2.4348259711732814
1.91944328679358,-3.8681592832490965,4.5619191899034695,2.368685373540955
1.880761693961089,-3.9781267809689838,4.585606043638879,2.2974071736025556
1.8409804261513991,-4.0942517962058576,4.608580115374904,2.222454944318934
1.8000379081893405,-4.21522304125728,4.630804664818093,2.146077370899539
1.7578856777767677,-4.339161223790978,4.652265438527089,2.0714093094387285
1.7144940655388579,-4.463613075666043,4.672979531621476,2.0024905667678463
1.6698579347821974,-4.585630948400098,4.693004437289155,1.9441579504622748
1.6240016252981964,-4.701958626207759,4.712446016793778,1.901778244134748
1.5769820390361187,-4.809323443348492,4.731463799235125,1.8808203226708688
1.5288888046026337,-4.904804868993751,4.750272002461833,1.8863101152152515
1.479840755912696,-4.98621957258426,4.769135103613986,1.9222590643519715
1.4299785601868535,-5.0524456110115485,4.788357694257506,1.9911851464395718
1.379454104076738,-5.103614176683645,4.808269545721902,2.0938386834806297
1.3284179623099017,-5.141127403233929,4.829207932556708,2.2292002636879564
1.2770066882775624,-5.167504949261827,4.851499935193587,2.3947499115142423
1.225331638784944,-5.186103988956243,4.87544743430873,2.5869408960928224
1.1734705988953815,-5.20078233037559,4.901316843269658,2.8017717117207113
1.1214627755916255,-5.215576661288894,4.929334560386865,3.0353461694501047
1.0693070089787367,-5.234451135896218,4.959688022081366,3.2843388433146434
1.0169624976197744,-5.261145505685656,4.992531410514513,3.5463258161250106
0.9643510425629178,-5.299127199468716,5.027994668675762,3.8199821120201527
0.9113597705682307,-5.351635043089837,5.066194489795964,4.105176520487197
0.8578434201373323,-5.421795720028489,5.107246255000836,4.403008804445605
0.8036254629370474,-5.512796003839941,5.151276343045293,4.715836676386857
0.748497502898648,-5.628101113415315,5.1984347098091614,5.04733606528513
0.6922164917644948,-5.771719293427155,5.248908070462012,5.402633270817536
0.6344992988302233,-5.948522704496927,5.3029344031701875,5.788544654315605
0.575014071785254,-6.164642747298425,5.3608198497133435,6.213958305665018
0.5133676443122698,-6.427959228219406,5.422959432769994,6.69038645616956
0.44908805203007574,-6.74868262296837,5.48986329733169,7.232686285035647
0.381601225800392,-7.139942313201524,5.5621901601820465,7.859827062390364
0.31020180266837677,-7.618008047199423,5.64078843080595,8.595187334551275
0.23402172219638254,-8.200903933273132,5.726740304151463,9.464661719881834
0.15201268286365122,-8.901702193080899,5.821386921350281,10.487411374346802
0.06299566093284223,-9.706634489570078,5.926261035093749,11.645489015912004
-0.03407068396285855,-10.51887848741846,6.042715925252868,12.80552508743674
-0.13925946883704315,-11.069904017697292,6.170771176127236,13.594950346799445
-0.24995850901401606,-10.971266271977855,6.30672067959523,13.47444846785214
-0.3596711717337946,-10.175216921490463,6.441465164273752,12.380567232709495
-0.46142334094869925,-9.141861369756697,6.565270836600847,10.95470158257986
-0.5528419546462662,-8.225615020339216,6.674817852426646,9.687286276143727
-0.6350981048496583,-7.497240937391827,6.771690715188083,8.674749883546918
-0.7100705142235766,-6.9270004612767835,6.858438214023552,7.875352031444769
-0.7793405188363445,-6.4753134569443445,6.937191734338,7.2344214639799835
-0.8440936534057879,-6.111265552398876,7.009535948977799,6.709578027473486
-0.9052063089297767,-5.812853982519938,7.076631729252534,6.270911046172079
-0.9633348487549761,-5.5645562529218155,7.139340839714254,5.897584482565298
-1.0189804112841943,-5.355235504910454,7.198316684539908,5.5749675402257
-1.0725327663332989,-5.17668361815272,7.254066359942165,5.292676285456828
-1.124299602514826,-5.022650231985788,7.306993122796733,5.0433030838246244
-1.1745261048346838,-4.888193931080986,7.35742615363498,4.821598851562101
-1.2234080441454935,-4.769242564102027,7.405642142150601,4.62394119694503
-1.2711004697865138,-4.6622940890525895,7.451881554120051,4.447976552528224
-1.3177234106770397,-4.564220516067516,7.496361319645334,4.292358271364532
-1.3633656158377148,-4.472158232337739,7.539284902358979,4.156521864813866
-1.408087198161092,-4.383480191681411,7.580850121007118,4.04045116317686
-1.4519220000779063,-4.295848693078575,7.621254632638887,3.944403205972996
-1.494880487008692,-4.207340004904135,7.660698664698616,3.8685821590417553
-1.5369538870577333,-4.1166137716145785,7.699384486289033,3.8127863641098148
-1.5781200247738791,-4.02307646386764,7.737512349930132,3.776091358914361
-1.6183507894125555,-3.926972280705117,7.775273263519275,3.7566572981768434
-1.6576205122196066,-3.829343073183701,7.812839836501044,3.7517390287370924
-1.6959139429514436,-3.7318379551906355,7.8503572267884145,3.757921827230538
-1.73323232250335,-3.636409908860706,7.88793644506072,3.7715253924928733
-1.769596421591957,-3.544981136237975,7.925651698985648,3.789056214688436
-1.8050462329543369,-3.4591658768848808,7.963542261132533,3.807580068569858
-1.8396378917231857,-3.380107805448885,8.001618061818231,3.8249330773522088
-1.8734389697776745,-3.308441143482643,8.039867392591754,3.839759168710065
-1.9065233812125009,-3.2443465996526384,8.078264984278855,3.851415979636297
-1.9389668472090273,-3.1876581288694816,8.116779144075217,3.8598122401242834
-1.970843428497722,-3.1379812468441957,8.15537726647646,3.8652322292902603
-2.002223240966164,-3.0947977393208235,8.194029588769363,3.868182393274182
-2.0331712183593726,-3.0575458382617664,8.232711412702104,3.869274857211489
-2.0637466767419905,-3.02567484457718,8.27140416127422,3.8691485911655055
-2.094003425187762,-2.9986782526613065,8.310095647185875,3.8684219799190567
-2.123990207714375,-2.976111002078869,8.348779866985065,3.8676685136851954
-2.1537513177351637,-2.957596130025962,8.387456552121918,3.867407965607024
-2.1833272790354235,-2.9428249907085675,8.426130631777989,3.8681070888116347
-2.212755528942509,-2.931554001893466,8.464811702666106,3.870185626888309
-2.242071068961444,-2.9235998592666426,8.503513558934989,3.8740248955539203
-2.27130706755411,-2.9188343985140777,8.542253807890528,3.8799772663666463
-2.300495411539251,-2.9171797590350437,8.581053580554196,3.8883756043218023
-2.3296672091296013,-2.918604155995984,8.619937336597413,3.8995421583494516
-2.358853250689561,-2.923118341478735,8.658932758180908,3.9137966524386543
-2.388084434104348,-2.930772681957315,8.698070724705294,3.9314634322856907
-2.4173921609239213,-2.9416546591195885,8.737385359028151,3.952877523721283
-2.446808707515117,-2.955886481783439,8.776914134265363,3.9783893706039786
-2.4763675723329515,-2.9736223486624693,8.816698027971404,4.0083678392449515
-2.506103795819576,-2.995044693745335,8.856781706363853,4.043200784367119
-2.536054242757029,-3.0203584413295723,8.897213714207524,4.0832920310994085
-2.566257827170325,-3.049781851427085,8.938046634518518,4.129052983695923
-2.596755645684596,-3.0835318960459683,8.979337164355476,4.180886154974203
-2.6275909646450555,-3.121801222357825,9.021146025905217,4.239156650807654
-2.6588089768686336,-3.164722610752172,9.063537592413294,4.30414601217613
-2.690456202976155,-3.212315507727924,9.106579052535055,4.375980924919015
-2.7225793580534345,-3.2644080439590426,9.150338861784245,4.4545276197720645
-2.755223438493025,-3.3205278157973184,9.194884137981965,4.539242521333685
-2.7884287166509982,-3.379757482492401,9.240276563195302,4.628973466710231
-2.822226291475922,-3.4405602523107452,9.286566297862404,4.7217182702770195
-2.8566318939990296,-3.500600297269694,9.333783480565174,4.81437514485893
-2.8916378969717265,-3.5566177200019853,9.381927232013764,4.902567681710733
-2.927204074171746,-3.6044621780232298,9.430952908830871,4.980689222165729
-2.9632486959519784,-3.6394176313525106,9.480759801052528,5.04235122546882
-2.9996428722655035,-3.6569083819342114,9.531183313307217,5.081361444632694
-3.0362119560848457,-3.6535104097843862,9.581996927753544,5.093126025291505
-3.0727470601826896,-3.627938263651526,9.632928188006458,5.0760159490231676
-3.109026442819205,-3.58152946102785,9.68368834749669,5.032032515421451
-3.1448417374294833,-3.5179239486135243,9.734008672650903,4.966353362173417
-3.1800209769156185,-3.4420810056806808,9.783672206272637,4.885961556141918
-3.2144417869724253,-3.359122926658158,9.832531821834056,4.798041684083529
-3.248033016239007,-3.273468527948434,9.880512238674891,4.708786119101308
-3.2807677015184913,-3.1884325536793106,9.927600099865904,4.622852221719993
-3.3126520270552846,-3.1062072988903977,9.973828622083104,4.543349892360167
-3.343714100044189,-3.028049534024536,10.019262121006706,4.4721112504158205
-3.3739945953844344,-2.9545262522388196,10.063983233510864,4.410038575061038
-3.4035398579068223,-2.8857386752141325,10.108083619261475,4.357419366132436
-3.4323972446589637,-2.821495741882274,10.1516578129228,4.314169605883597
-3.4606122020777863,-2.7614361458336454,10.194799508981635,4.280004806706118
-3.4882265635361227,-2.7051086017539125,10.237599557048696,4.254552885104628
-3.5152776495536617,-2.652021751110484,10.280145085899743,4.237425049498027
-3.5417978670647665,-2.6016734016997973,10.322519336394723,4.228258321366669
-3.5678146010817646,-2.5535663151569943,10.36480191960839,4.226739737383885
-3.5933502642333344,-2.5072155520717208,10.407069316982229,4.232619125823397
-3.6184224197540518,-2.4621507237012996,10.449395508240462,4.2457149619740875
-3.643043926991065,-2.417915352823783,10.491852657860203,4.265916123042161
-3.6672230805193027,-2.3740648034496825,10.534511819090625,4.2931812108285285
-3.6909637285537995,-2.3301637913356017,10.57744363119891,4.327536319986323
-3.7142653664671554,-2.285784252246138,10.620718994398773,4.369071563616698
-3.7371232089896167,-2.2405042687936016,10.66440971003494,4.417936222725229
-3.7595282516775526,-2.193908809259038,10.708589072262193,4.474331983441889
-3.781467339770143,-2.145593200791864,10.753332392096612,4.538503304589481
-3.8029232717780617,-2.095170544696574,10.798717425142506,4.610723468054079
-3.8238749772250276,-2.0422846885428885,10.844824659823047,4.691274265621206
-3.8442978241104564,-1.9866308994612694,10.89173740247926,4.780416545288994
-3.864164133105069,-1.927987014100809,10.93954156793215,4.878347989212026
-3.883444003246077,-1.8662584991307318,10.98832504782427,4.985143608431299
-3.9021065882373844,-1.8015413616493268,11.038176483908584,5.100673740173126
-3.9201220018538776,-1.7342068326976023,11.089183221310316,5.2244942925905375
-3.9374640701808534,-1.6650105411123322,11.141428164236222,5.355705463826141
-3.9541141755919766,-1.5952254240482666,11.194985218874484,5.4927795705617175
-3.9700664298324595,-1.5267904030658925,11.249913014580102,5.6333679059277
-3.9853343338631184,-1.462454349808744,11.306246693639379,5.774112762365242
-3.999958877361206,-1.4058765661019157,11.36398782126303,5.910514640143936
-4.014017643022225,-1.3616236679400238,11.42309296766447,6.036932716363966
-4.027633879701625,-1.3349874992878814,11.48346229482811,6.146817067180373
-4.040983754694504,-1.3315566464442583,11.544930465499913,6.233261555982619
-4.054299321158947,-1.3565255917864332,11.60726308105974,6.289900099016569
-4.067864577076811,-1.4138275534276719,11.670162082049906,6.3120368491123156
-4.0820028526110885,-1.5052999659966841,11.73328245054103,6.297741137424422
-4.097055852271056,-1.6301628753888036,11.796259861915274,6.248544972824273
-4.113357481024944,-1.7850347149436976,11.858745311643517,6.169452380596485
-4.131207828174381,-1.9645215403416452,11.920439835449482,6.068212528030738
-4.150853043577798,-2.1621919812457855,11.981121960729789,5.954096634673092
-4.172474963390256,-2.3716247593296935,12.04066292707652,5.836580069871516
-4.196191210983553,-2.587249003912941,12.099028727775234,5.724289177852596
-4.222063701022683,-2.804838527633506,12.15627161955376,5.624393503615802
-4.250112086299018,-3.0216695593944762,12.212515554589917,5.542436009309746
-4.280328781892963,-3.2364396224688456,12.267939914683014,5.482482192445781
-4.312693178117652,-3.449064684623241,12.322764736607471,5.447444556874186
-4.347183824963884,-3.6604488544932074,12.377239182176213,5.4394683452741885
-4.383788313508816,-3.872285551989938,12.431633865628955,5.460310463468854
-4.4225111690287155,-4.086919114868282,12.486236970263644,5.511683788801905
-4.463380360177398,-4.307277005985876,12.541353808151662,5.595566402010415
-4.506453130237257,-4.536874157784213,12.597309472171766,5.714491020578646
-4.5518218718151,-4.779889286437585,12.654454382377553,5.871837912324544
-4.599620764679475,-5.041314852968321,12.713172761500799,6.072157948868788
-4.650033913209159,-5.327184252907135,12.773894340989486,6.321551715672073
-4.70330575573823,-5.644876232788924,12.837109858146206,6.6281210492746645
-4.759754518066119,-6.003474524319325,12.903391068638953,7.0024744498223574
-4.819789263309312,-6.414086121945851,12.973415813137176,7.4581604018878975
-4.883930124528771,-6.889803269834318,13.047997417156056,8.011595180685394
-4.952828157227114,-7.444395170299179,13.12811336896291,8.68021205563421
-5.027272108930106,-8.08727748282165,13.214915489519253,9.475402594558226
-5.108144883758322,-8.80890292832966,13.309669515464835,10.382039120846093
-5.196233913041619,-9.54634016463946,13.413489906673295,11.310195461022508
-5.2916973146880135,-10.129729061948572,13.52659186128352,12.019923652313246
-5.392994605307499,-10.29056757547216,13.646791097806654,12.132468368253015
-5.49590028106222,-9.897125241137632,13.768115781489184,11.45943958747
-5.594871533473596,-9.178913139063278,13.882710177363885,10.316181064276584
-5.686660664864229,-8.451817299915772,13.98587198800665,9.137954774455308
-5.771178837863387,-7.850761295143015,14.077251535751204,8.108601749877765
-5.849686450814817,-7.38780352194644,14.158337553249982,7.241941243589391
-5.923564486034281,-7.041044464353047,14.230756965685876,6.5049483930388385
-5.993974930677812,-6.786918630588024,14.295806449616265,5.862243467085264
-6.061844116983692,-6.606944468402698,14.354428884287117,5.2853396744861865
-6.127913561667719,-6.487699809123662,14.407282281031978,4.752643578270913
-6.192790559758955,-6.419582392241771,14.454808716814687,4.247872825089342
-6.256986383681373,-6.395635913750558,14.49728744506558,3.7586552099327513
-6.320942742818879,-6.410631659247856,14.534873997164908,3.2755787251007984
-6.385049059411357,-6.460361990519784,14.567629784415915,2.791641026673452
-6.449652679316555,-6.541077305233463,14.59554619468265,2.3020034161961305
-6.51506345236889,-6.649019329874301,14.61856622884461,1.8039621391307903
-6.581553645667634,-6.7800323163814085,14.636605850235918,1.2970547741628629
-6.649353968831448,-6.929261203332108,14.649576397977548,0.783213026346441
-6.718646580864768,-7.090967953586384,14.657408528241012,0.26686068603459023
-6.789556260400632,-7.258508197339642,14.660077135101359,-0.24515088162266785
-6.862141342374028,-7.424502719348491,14.657625626285132,-0.7438623323550204
-6.936386369567513,-7.5812080429169795,14.650187002961582,-1.2188259438160416
-7.012198449996683,-7.721042356636365,14.637998743523422,-1.658992219223733
-7.0894088735630465,-7.837174204727523,14.621408821331185,-2.053744395952257
-7.167780615610321,-7.924054927205873,14.600871377371663,-2.393902932703927
-7.24702116488238,-7.9777880092539,14.576932348044624,-2.6725200447061845
-7.326799044974919,-7.99627663872486,14.550207147597561,-2.88534269643025
-7.406761811362168,-7.979153592542991,14.52135372063326,-3.0309145048809336
-7.486553347287598,-7.927548406234265,14.49104457558445,-3.1103725595402203
-7.565828831349941,-7.843769146756664,14.459940849989048,-3.127044307360471
-7.6442665228175075,-7.730969990584689,14.428670406915442,-3.085955664833628
-7.721576222723354,-7.592852691415486,14.397810850267106,-2.9933370277941287
-7.797504749637509,-7.433423538151275,14.367877479989165,-2.856178133295856
-7.871838985019022,-7.256806789766557,14.339315698656206,-2.6818510193309053
-7.944407052916688,-7.067104140780507,14.312497188462897,-2.477799833133932
-8.015078094324492,-6.868286588452977,14.287719190131558,-2.2512874085447425
-8.083760960209021,-6.664107331203351,14.265206316046111,-2.009188173775402
-8.150402033521056,-6.45802902498183,14.245114434308357,-1.7578208916630869
-8.214982323770874,-6.253163487991853,14.227536225391727,-1.5028193948089574
-8.277513958650793,-6.052225294723899,14.212508031443639,-1.2490425412737591
-8.338036211598032,-5.85750204264031,14.200017606030901,-1.000525149579502
-8.396611232024435,-5.670843550329938,14.190012354535106,-0.7604699089934107
-8.453319667527735,-5.493670485612573,14.182407655445173,-0.5312771774573315
-8.50825637238386,-5.327000744837049,14.1770948836706,-0.31460637986135737
-8.56152637983223,-5.171490035439668,14.173948819871987,-0.1114603931594206
-8.613241280186626,-5.0274820002386,14.172834215940393,0.07771663063003259
-8.663516100189012,-4.895062985722346,14.173611382246692,0.25293708323777875
-8.712466730046236,-4.774117060037755,14.17614075307907,0.4145709155310875
-8.760207900646613,-4.664377855069836,14.180286462234381,0.5632553271278962
-8.806851679197312,-4.565474948930042,14.185919015505661,0.6998164540911407
-8.852506428686612,-4.476973589515324,14.192917180046573,0.8252044885359731
-8.897276164581765,-4.3984074474916115,14.201169224931933,0.9404422147497113
-8.941260239056682,-4.329304724854862,14.21057364707943,1.0465859766279302
-8.98455328630523,-4.269208341447781,14.22103950684571,1.144697548960343
-9.027245369719708,-4.217691118739914,14.232486482335313,1.2358251751736657
-9.069422280907107,-4.174366931727337,14.24484473408705,1.3209920531843586
-9.11116595022438,-4.1388987572213,14.258054654618894,1.4011907079149477
-9.152554937796594,-4.111004451577727,14.272066561698043,1.4773819133323267
-9.193664982312372,-4.090460972806202,14.286840380831366,1.5504970693551872
-9.234569592040433,-4.077107639725028,14.302345351524918,1.6214431681317631
-9.275340668437684,-4.070848904002084,14.318559783206236,1.6911096811411341
-9.316049157477705,-4.071657001869031,14.335470880017647,1.760376851929474
-9.356765727496395,-4.079574747295172,14.353074648536943,1.8301249803212583
