th1 (rad),w1 (rad/s),th2 (rad),w2 (rad/s)
3.791686819147957,1.9201337781119268,1.2627873799830773,2.2511122390225604
3.8108881569290762,1.9430044361127239,1.285298502373303,2.1976371861222823
3.8303182012902033,1.969060783727647,1.307274874234526,2.146683753411073
3.8500088091274796,1.9983055131067202,1.3287417117686366,2.098375218688453
3.8699918642585467,2.030743523659596,1.3497254639555212,2.052839240803577
3.8902992994951426,2.0663824901320713,1.370253856363557,2.0102084595147613
3.9109631243964635,2.105233350077139,1.3903559409587045,1.9706209965463692
3.932015457897235,2.1473107067023975,1.4100621509241682,1.9342208509665022
3.953488564964259,2.192633141560014,1.4294043594338333,1.9011581799324984
3.975414896379859,2.241223429787855,1.4484159412331583,1.8715894533222344
3.9978271306777375,2.2931086486452195,1.4671318357663807,1.8456774678080836
4.02075821716419,2.3483201679518584,1.4855886104444616,1.8235912025657617
4.044241418843709,2.406893508780171,1.5038245224701192,1.8055054950848328
4.06831035393151,2.4688680544251977,1.5218795774209675,1.791600511525044
4.0929990344757625,2.534286595359616,1.539795582536218,1.782060981835997
4.118341900429359,2.603194687668106,1.557616192354578,1.7770751655587151
4.144373847306039,2.6756398024715704,1.575386944010165,1.7768335100370642
4.1711302453307555,2.751670242254072,1.5931552791105357,1.7815269589245697
4.198646947753296,2.8313337989882936,1.6109705486997814,1.7913448656866373
4.226960285743179,2.9146761287524283,1.6288839973566478,1.8064724646546064
4.256107047030704,3.001738818414518,1.6469487220031938,1.827087851551527
4.286124435214849,3.09255712223391,1.665219600518709,1.8533584268221595
4.317050006437189,3.18715735021885,1.6837531847869305,1.885436759168225
4.348921579939377,3.2855538961096706,1.7026075523786128,1.9234558340604937
4.381777118900474,3.3877459012242057,1.7218421107192177,1.9675236633159066
4.415654577912716,3.493713561330883,1.7415173473523766,2.0177172476720697
4.450591713526025,3.6034140973085353,1.7616945198290974,2.0740759051017474
4.486625854499111,3.7167774265321816,1.782435278880115,2.1365940035833395
4.523793628764433,3.8337015903693534,1.8038012189159485,2.205213168023605
4.562130644668127,3.9540480132597704,1.8258533505961845,2.279814066393722
4.601671124800724,4.077636689619611,1.8486514912601217,2.3602079187032037
4.64244749169692,4.204241414948555,1.8722535704471537,2.4461279123896658
4.684489905846406,4.333585195401721,1.8967148495710504,2.5372207466218732
4.7278257578004235,4.465335983889527,1.9220870570372692,2.6330385629592423
4.772479117639318,4.599102898619227,1.9484174426668617,2.7330315475428946
4.81847014662551,4.734433080229029,1.9757477581422906,2.8365415073086537
4.865814477427801,4.870809335122568,2.004113173215377,2.942796726893027
4.9145225707790265,5.007648694931165,2.0335411404843073,3.0509084022319195
4.964599057728338,5.144301995949549,2.0640502245066266,3.1598689211258657
5.016042077687834,5.280054549931253,2.095648913717885,3.2685522219943413
5.068842623187146,5.414127942151184,2.1283344359378287,3.3757164135428064
5.1229839026086585,5.545682958693959,2.1620916000732566,3.4800087860640754
5.1784407321955985,5.673823617890344,2.1968916879338973,3.5799732971595426
5.235178968374502,5.79760226636622,2.2326914209054927,3.6740605791718433
5.293154991038164,5.916025703537511,2.2694320266972112,3.76064050060321
5.352315248073539,6.028062323633371,2.3070384317032433,3.838017325560528
5.412595871309873,6.132650313524696,2.345418604958849,3.904447556899749
5.473922374445119,6.228707017094806,2.3844630805278464,3.9581606186027702
5.536209444616067,6.315139668462443,2.424044686713874,3.9973826232757035
5.599360841300691,6.390857798714799,2.464018512946631,4.020363566488891
5.663269419287839,6.454787720664345,2.50422214861152,4.025408367780327
5.727817296494482,6.505889574592616,2.5444762322893233,4.010912206710228
5.792876192240408,6.5431774499136655,2.5845853543564257,3.9754005414592877
5.858307966739545,6.565743052118716,2.6243393597710187,3.9175740011564515
5.923965397260733,6.57278322585004,2.6635150997825834,3.836357964232537
5.989693229519233,6.563631337985678,2.7018786794249086,3.730956034060503
6.05532954289909,6.537792041573695,2.7391882397655136,3.6009057819720285
6.120707463314827,6.494978275067795,2.7751972975852337,3.446134069151041
6.185657246065505,6.435148530938209,2.809658638276744,3.267008068284642
6.250008731374887,6.35854153619714,2.8423287189595907,3.0643769499530427
6.313594146736858,6.265704671882542,2.872972488459121,2.839598330635939
6.376251193455683,6.157511925978793,2.90136847176548,2.594543316157114
6.437826312715472,6.035167161177845,2.9273139049270513,2.3315746373527175
6.49817798432725,5.9001891917170255,2.9506296513005785,2.0534941891179495
6.557179876244421,5.754376696985322,2.971164593191758,1.7634592608670863
6.6147236432142735,5.59975325828487,2.9887991858004286,1.4648705872862307
6.670721175797122,5.438495466103982,3.0034478916732907,1.1612394284949472
6.725106130458162,5.272849596349578,3.0150602859582403,0.8560443626491504
6.777834626421658,5.105044217557232,3.023620729584732,0.5525904971895004
6.828885068597231,4.93720680076157,3.029146634556627,0.2538838074681804
6.878257136604846,4.771291765951325,3.0316854726313087,-0.03746878895669775
6.92597005426436,4.60902556683644,3.0313107847417418,-0.31932676077844263
6.972060309932724,4.4518718374380715,3.0281175171339574,-0.5900483725064851
7.016579028307104,4.301016890145506,3.0222170334088925,-0.8484902145427851
7.05958919720856,4.157373510901376,3.0137321312634646,-1.0939792757909164
7.101162932317574,4.021599400449035,3.0027923385055555,-1.3262649495618493
7.141378926322064,3.894125875669513,2.989529689009937,-1.545458885612437
7.1803201850787595,3.775192476288208,2.974075100153813,-1.7519699537428468
7.218072109841642,3.664883697938186,2.9565554006163843,-1.9464401986528743
7.254720946821024,3.5631649368392435,2.9370909986298557,-2.129685978173855
7.2903525961894164,3.4699156624422285,2.915794138848117,-2.3026468313061543
7.325051752813839,3.3849586783822287,2.8927676705350556,-2.4663432318239353
7.3589013395976615,3.308085006732422,2.8681042382168163,-2.6218433381864292
7.3919821896649855,3.2390744111081267,2.841885804834952,-2.770238151350832
7.424372933776067,3.1777118728664364,2.8141834233214436,-2.9126240857287877
7.456150052504731,3.1238004815332396,2.785057182464156,-3.050091769247127
7.4873880573200635,3.0771712292465168,2.7545562647716846,-3.183719838028874
7.518159769612529,3.037690137474256,2.722719066391396,-3.314572508798913
7.548536670987271,3.005263009987737,2.689573341303407,-3.4436997365170265
7.578589301087149,2.9798379031085003,2.6551363439382367,-3.5721387412127092
7.608387680118234,2.961405121203109,2.61941495652611,-3.7009155618580603
7.638001731330265,2.9499941528434537,2.5824058009075292,-3.8310450030789824
7.667501672858699,2.9456664098475316,2.544095350876739,-3.9635268004873434
7.696958336957175,2.948501840387655,2.5044600828718657,-4.099334931026329
7.726443355361051,2.95857635294478,2.4634667335616025,-4.239395588170683
7.756029118890499,2.9759253837461372,2.4210727776798957,-4.384547250906287
7.785788372727961,3.0004867563690145,2.377227305170833,-4.535473341210004
7.815793240291651,3.0320132349961426,2.331872571758733,-4.692594195360426
7.846113372641613,3.069942277622107,2.2849466298051286,-4.855901017230236
7.876812795417834,3.113208852556919,2.236387619632826,-5.024712032253885
7.9079448839434034,3.1599902629608647,2.1861404993102873,-5.197334970969996
7.939544786573012,3.207386832813699,2.134167149600587,-5.370640066613661
7.971618654901149,3.251080700083007,2.0804607489344504,-5.539600092531891
8.004129461901979,3.2850892119089523,2.0250647480091315,-5.696955831767477
8.036980354021068,3.3018351022457706,1.9680951896914567,-5.833310864617068
8.069998705043526,3.2928332241873206,1.909762081045286,-5.938066465630885
8.102927037285399,3.250196213466397,1.8503814163889771,-6.00147247490329
8.135428999420062,3.1687339059858846,1.7903666916399443,-6.017479265493858
8.167116338479921,3.047783669431828,1.7301918989850058,-5.986198601484389
8.19759417517424,2.891660376541434,1.6703299129701619,-5.914449798148273
8.226510778939655,2.708306928528728,1.611185414988679,-5.8138387408966565
8.253593848224943,2.506908994828757,1.5530470275797126,-5.6974511807258335
8.27866293817323,2.2957518009392937,1.4960725157724541,-5.576929351498305
8.301620456182624,2.0810808514628056,1.4403032222574712,-5.460962716782073
8.322431264697252,1.8669308816567334,1.3856935950896505,-5.355115491545408
8.34110057351382,1.6554982135254914,1.3321424401741964,-5.262387089861724
8.357655555649075,1.447667384773165,1.279518569275579,-5.183964553654968
8.372132229496806,1.243482982348286,1.2276789237390293,-5.119882278203106
8.38456705932029,1.042500955839043,1.1764801009569983,-5.069504015066695
8.39499206887868,0.8440247541767307,1.1257850608063313,-5.031839177864755
8.403432316420448,0.6472540780878928,1.0754666690276837,-5.005734811307348
8.409904857201326,0.45137440972812526,1.0254093209146102,-4.9899837638450615
8.414418601298607,0.25560905144636215,0.9755094832761596,-4.983379886618315
8.41697469181307,0.059248578708972544,0.9256756844099765,-4.984741203004123
8.41756717760016,-0.13833271048427898,0.8758282723799352,-4.992914445388389
8.416183850495317,-0.33766744436106555,0.8258991279260514,-5.006769233259732
8.412807176051706,-0.5391894132531189,0.775831435593454,-5.02518690518812
8.407415281919175,-0.7432293958504859,0.7255795665415729,-5.047047024422913
8.39998298796067,-0.9500115272880727,0.6751090962973437,-5.071213399844475
8.39048287268779,-1.1596497573436269,0.624396962298899,-5.096520791321393
8.378886375114353,-1.372144329866572,0.573431754385685,-5.121763101066402
8.365164931815688,-1.5873784672918336,0.522214123375021,-5.145683663762166
8.34929114714277,-1.8051156155474768,0.47075728673739936,-5.166968157945726
8.331239990987296,-2.0249977212880967,0.4190876051579421,-5.184240617783244
8.310990013774415,-2.2465450876098236,0.36724519898010966,-5.196062993641018
8.288524562898317,-2.4691583902041754,0.3152845690436995,-5.200938668319966
8.263832978996275,-2.6921234326908348,0.26327518236049985,-5.197320267453138
8.236911744669367,-2.9146191753718975,0.21130197968596848,-5.18362199724557
8.207765552915648,-3.1357294842257204,0.1594657597135128,-5.158236595725659
8.17640825807339,-3.354458917319082,0.1078833937562562,-5.119556795492336
8.1428636689002,-3.569752698155889,0.056687825801332845,-5.066000972078867
8.10716614191864,-3.7805208278341476,0.006027816080544174,-4.996042402231019
8.069360933640299,-3.9856660716312287,-0.04393260794176602,-4.908241293190634
8.029504272923987,-4.1841153342375135,-0.09301502087367236,-4.801278481107998
7.987663119581612,-4.374853725120995,-0.14102780568475234,-4.6739894468494505
7.943914582330402,-4.556960423971597,-0.18776770015324684,-4.525397071704145
7.8983449780906865,-4.729645296247692,-0.2330216708702883,-4.354741363063238
7.85104852512821,-4.892285089204071,-0.27656908450092066,-4.161504230219171
7.802125674236169,-5.044457968159998,-0.31818412680311237,-3.9454272949404268
7.751681094554569,-5.185975142620211,-0.35763839975251666,-3.706520697842623
7.699821343128367,-5.316908398683738,-0.3947036067309429,-3.445060933525052
7.646652259141529,-5.437612519966075,-0.4291542160661934,-3.1615759419501117
7.592276133941868,-5.548741868809793,-0.46076997548569454,-2.8568160228659774
7.5367887152537705,-5.65126083414783,-0.4893381357143543,-2.531709629567942
7.480276106912292,-5.746448440985137,-0.5146552320100337,-2.187303713127966
7.422811622502441,-5.835898146986986,-0.5365282691413134,-1.8246889641216069
7.364452641032571,-5.921514685409628,-0.5547751587825294,-1.4449109329203025
7.305237494178475,-6.005510685049841,-0.5692242681117324,-1.0488684760844327
7.245182387327977,-6.090406618497386,-0.5797129528725767,-0.6372011606854755
7.184278321143003,-6.179038288995054,-0.5860849644794315,-0.21016711106216085
7.122487938253053,-6.274576412149182,-0.5881866355900531,0.23248759915235262
7.059742174131561,-6.380562620253508,-0.5858617595985296,0.6916671435041983
6.995936547929025,-6.5009648621123475,-0.5789450881634877,1.169070029014017
6.930926899307901,-6.640251427498098,-0.5672543878733475,1.667333437643578
6.8645243850329205,-6.803473783290098,-0.5505810534969117,2.190160736883432
6.796489647200019,-6.9963274530074395,-0.5286794461280774,2.742386486728809
6.7265263726699445,-7.225112552577668,-0.5012555812607893,3.3298665681155812
6.6542752471441675,-7.496409452938828,-0.4679569155796335,3.958931402530566
6.579311152614779,-7.816056213095193,-0.42836760155432785,4.634817853153944
6.501150590483827,-8.186555958721705,-0.3820194230227884,5.357851625052031
6.41928503089661,-8.601282225311813,-0.3284409067722681,6.115090705846521
6.333272208643492,-9.03328341062545,-0.2672899997138029,6.864371867518072
6.2429393745372375,-9.419097329813587,-0.1986462810386222,7.511455116932203
6.148748401239102,-9.65171308053985,-0.12353172986930017,7.900443172174647
6.052231270433703,-9.620556553907202,-0.0445272981475537,7.8712052640217784
5.956025704894631,-9.307326631090653,0.03418475449266409,7.396215243792342
5.862952438583725,-8.821995946357928,0.10814690693058751,6.632624723649981
5.7747324791201455,-8.303937533304348,0.1744731541670873,5.782282739652679
5.691693103787102,-7.83393973253421,0.23229598156361408,4.965526202024303
5.61335370646176,-7.436450750464032,0.2819512435838571,4.22260134924265
5.53898919895712,-7.109358108051191,0.3241772570762836,3.555147101900045
5.467895617876608,-6.842473479255523,0.35972872809528406,2.9524449476692114
5.399470883084053,-6.6248228543294685,0.3892531775719762,2.4020353919076967
5.333222654540759,-6.446799546648826,0.41327353149105317,1.8930431870665005
5.26875465907427,-6.300487436972338,0.4322039633617182,1.4168426870698205
5.205749784704547,-6.1794465806135985,0.44637239023241637,0.9668975220126984
5.143955318898411,-6.078400910216738,0.45604136545254337,0.5384109383777141
5.083171309796244,-5.992959471877384,0.4614254748363205,0.12798403609969755
5.02324171507747,-5.9193994680857465,0.4627053151973175,-0.2666706248326946
4.9640477203966125,-5.854507920521025,0.46003860894899057,-0.6469595868153406
4.9055026411914024,-5.795471169955969,0.45356901308083714,-1.0135946454424385
4.847547929491843,-5.739801167117376,0.44343306662641274,-1.3667465154269924
4.79014991782067,-5.685289068219378,0.4297656014721428,-1.7061752725309336
4.733297027138476,-5.629978346399976,0.41270384874683347,-2.031343748597381
4.676997243674476,-5.572151072668387,0.39239041126085966,-2.341517428626813
4.621275732947792,-5.510322215410319,0.36897523697459156,-2.635852460362273
4.566172510793689,-5.443237850961286,0.3426167123709688,-2.9134721518149425
4.511740132284076,-5.369874144629825,0.31348199085281936,-3.1735317264222243
4.458041390837778,-5.289434879961455,0.2817466735885971,-3.4152710071035437
4.4051470420381635,-5.20134616942025,0.2475939635175617,-3.6380549578805916
4.353133580343961,-5.105247732655528,0.21121341393875576,-3.841402462879745
4.3020811030174055,-5.0009807359282465,0.1727993893099583,-4.025004216813441
4.252071295658123,-4.888572618495662,0.1325493471418239,-4.1887310196935275
4.203185569473166,-4.7682195826349645,0.09066203694488861,-4.332634037826425
4.155503373646816,-4.640267512090742,0.04733569656662436,-4.456938687166294
4.109100698525909,-4.5051920466228745,0.0027663096949614233,-4.562033728763319
4.06404877805968,-4.363578424985643,-0.04285402759267176,-4.648456981528804
4.020412993809824,-4.216101561390298,-0.0893385974079598,-4.716878808688704
3.978251978195921,-4.063506678973635,-0.13650738549484684,-4.768084272800615
3.9376169114061845,-3.9065907125874126,-0.184188228222853,-4.802954620069954
3.89855100428031,-3.746184622907745,-0.23221777442355254,-4.822448571746441
3.8610891580512328,-3.583136732968719,-0.280442260141017,-4.827583776237642
3.8252577907215457,-3.418297196926806,-0.3287180979033934,-4.8194187047785295
3.7910748187522776,-3.2525037252496642,-0.3769122849511787,-4.799035242209479
3.758549781499781,-3.0865687064970673,-0.4249026373732735,-4.767522215395007
3.72768409443481,-2.9212678720703713,-0.4725778595272236,-4.725960098627636
3.6984714157141063,-2.7573306398211694,-0.5198374605135,-4.675407125301142
3.6708981093158948,-2.5954322431619214,-0.5665915317665114,-4.616887010680152
3.6449437868842756,-2.4361877065300512,-0.6127604018733129,-4.551378449511628
3.620581909818975,-2.280147670990356,-0.6582741863684292,-4.479806496712473
3.5977804331090715,-2.127796012223634,-0.7030722513355538,-4.403035874593769
3.576502472986835,-1.9795491340372957,-0.7471026100814915,-4.3218661825791775
3.556706981646462,-1.8357567696943617,-0.7903212719072833,-4.237028921605887
3.5383494139495184,-1.6967040848881778,-0.8326915611233422,-4.149186190694764
3.5213823731006366,-1.562614852180775,-0.8741834230302898,-4.058930871145738
3.5057562245788287,-1.433655457369174,-0.9147727317417472,-3.9667880861590574
3.491419670005137,-1.3099395022173475,-0.9544406126033378,-3.87321771037443
3.4783202749829636,-1.1915327829312805,-0.9931727897070821,-3.778617703475212
3.466404947153651,-1.078458446773227,-1.0309589667418342,-3.683328052352987
3.4556203626859188,-0.97070215733361,-1.067792247265364,-3.587635124668259
3.4459133411125826,-0.8682171294707721,-1.1036685985120467,-3.4917762602292695
3.437231169817875,-0.7709289255036482,-1.1385863611143394,-3.3959444529315164
3.4295218805628385,-0.6787399331580314,-1.1725458056436546,-3.3002930029498616
3.422734481231258,-0.5915334718330537,-1.2055487356731533,-3.2049400448299137
3.4168191465129274,-0.5091774962803973,-1.2375981361214525,-3.1099728809470677
3.4117273715501235,-0.4315278854980994,-1.2686978649309233,-3.0154520707902375
3.4074120926951426,-0.35843131957222507,-1.2988523856388257,-2.9214152443480743
3.4038277794994203,-0.2897277586103534,-1.3280665380823065,-2.8278806224757758
3.400930501913317,-0.22525254619175883,-1.3563453443070643,-2.7348502386494924
3.3986779764513995,-0.16483816536648502,-1.3836938466935593,-2.6423128652527366
3.3970295947977345,-0.10831567863888744,-1.4101169753460867,-2.5502466538380233
3.3959464380113458,-0.05551588501831171,-1.435619441884467,-2.458621503049272
3.3953912791611627,-0.006270227513827095,-1.4602056569149597,-2.367401170456159
3.3953285768860244,0.03958851626088243,-1.4838796686195213,-2.2765451457978507
3.395724462048633,0.08222572913380757,-1.5066451200774997,-2.186010303382894
3.396546719339971,0.12180460574656812,-1.5285052231113287,-2.0957523509264404
3.3977647653974365,0.15848593314677192,-1.5494627466205932,-2.0057270911653013
3.399349624728904,0.19242797588946775,-1.5695200175322463,-1.9158915113744344
3.4012739044877986,0.22378644340788495,-1.5886789326459907,-1.826204714575867
3.4035117689218777,0.25271451989590404,-1.6069409797917493,-1.7366287049081888
3.406038914120837,0.27936293939276985,-1.6243072668408312,-1.6471290384053436
3.4088325435147646,0.30388009114476616,-1.6407785572248845,-1.5576753493829323
3.411871344426212,0.3264121426188492,-1.656355310718714,-1.4682417617886274
3.4151354658524005,0.347103169744609,-1.6710377283366002,-1.3788071942582651
3.4186064975498467,0.3660952860501217,-1.684825800279183,-1.2893555672286647
3.422267450410348,0.38352876432045374,-1.6977193559514696,-1.1998759202734577
3.4261027380535523,0.3995421462292356,-1.7097181151542042,-1.1103624478166383
3.4300981595158446,0.41427233705636934,-1.7208217396323706,-1.02081446149721
3.4342408828864084,0.4278546840897872,-1.7310298842473426,-0.9312362876573717
3.438519429727306,0.4404230385974263,-1.7403422471239163,-0.8416371086532272
3.4429236601132804,0.4521098023300608,-1.7487586182104486,-0.7520307568888353
3.447444758136581,0.46304596036270745,-1.756278925779337,-0.6624354706037935
3.4520752177402083,0.47336110269370074,-1.7629032804853748,-0.5728736204614596
3.4568088287671452,0.4831834373947992,-1.7686320166899894,-0.48337141585983967
