th1 (rad),w1 (rad/s),th2 (rad),w2 (rad/s),a1 (rad/s^2),a2 (rad/s^2)
4.1947280247904954,1.01807789472951,5.741078072447243,0.5720095446785665,8.632989303787921,3.809037625284835
4.204908803737791,1.1044077877673892,5.7467981678940285,0.6100999209314149,8.69983569823497,3.5374740425128297
4.215952881615465,1.191406144749739,5.752899167103343,0.6454746613565432,8.770351672907688,3.241190466858655
4.2278669430629625,1.279109661478816,5.759353913716908,0.6778865660251298,8.84421689732865,2.919545563007874
4.240658039677751,1.3675518304521024,5.76613277937716,0.7070820216552085,8.921138688385374,2.5718777169241496
4.254333557982272,1.4567632173359562,5.773203599593712,0.73280079882445,9.000866091580013,2.197510350217156
4.268901190155631,1.5467718782517563,5.780531607581956,0.7547759023266216,9.083205752272388,1.795756848240538
4.2843689089381485,1.6376039357744803,5.788079366605222,0.772733470809027,9.168039711252977,1.3659247820219937
4.300744948295893,1.72928433288701,5.795806701313313,0.786392718629247,9.255345260423594,0.9073190296001497
4.318037791624763,1.821837785491246,5.803670628499606,0.7954659089252485,9.345216996631322,0.41924331919140084
4.336256169479676,1.9152899554575593,5.811625287588858,0.7996583421171625,9.437891216028063,-0.09900037434933037
4.355409069034252,2.00966886761784,5.819621871010029,0.7986683383736691,9.533772799227526,-0.6481152455984253
4.37550575771043,2.105006595610115,5.827608554393766,0.7921871859176849,9.633464750713966,-1.2288166542180528
4.396555823666531,2.2013412431172545,5.835530426252943,0.7798990193755043,9.737800576134266,-1.841843568744964
4.418569236097703,2.298719248878597,5.843329416446697,0.7614805836880547,9.84787970960055,-2.4879754232700932
4.441556428586489,2.3971980459746027,5.8509442222835775,0.7366008294553538,9.965106240186998,-3.1680554342790432
4.465528409046235,2.496849108376473,5.858310230578131,0.7049202751125634,10.091231230380052,-3.883021480882081
4.49049690013,2.5977614206802735,5.865359433329257,0.6660900603037426,10.228398962992419,-4.633945661056908
4.516474514336803,2.7000454103101976,5.872020333932294,0.6197506036931736,10.379197482975327,-5.422083567680219
4.543474968439905,2.8038373851399507,5.878217839969226,0.5655297680163713,10.546713789439787,-6.248934130097046
4.571513342291304,2.909304523034349,5.88387313764939,0.5030404267154008,10.734593931388408,-7.116310456813296
4.600606387521648,3.016650462348233,5.888903541916544,0.4318773221472679,10.94710798084992,-8.026421356227656
4.63077289214513,3.126121542156732,5.893222315138017,0.3516131085849913,11.189219248891158,-8.981961879459586
4.662034107566697,3.2380137346456435,5.896738446223867,0.2617934897903954,11.466655917390478,-9.986208947086084
4.694414244913154,3.352680293819548,5.899356381121771,0.16193140031953457,11.785981049795001,-11.043114264332889
4.727941047851349,3.4705401043174984,5.900975695124966,0.05150025767620568,12.154652988546685,-12.157380251898033
4.762646448894524,3.5920866342029654,5.901490697701728,-0.07007354484277464,12.581061220684886,-13.334493875624577
4.798567315236554,3.717897246409814,5.900789962253301,-0.20341848359902043,13.074510843342113,-14.580675132988215
4.835746287700653,3.848642354843235,5.8987557774173105,-0.34922523492890256,13.645108361946559,-15.90266670410953
4.8742327112490855,3.985093438462701,5.895263525068022,-0.5082519019699978,14.30346704133415,-17.30724092326245
4.9140836456337125,4.128128108876043,5.890181006048322,-0.6813243112026224,15.060092194785456,-18.800216866833473
4.955364926722473,4.278729030823897,5.883367762936296,-0.8693264798709571,15.924211138355252,-20.38464377890691
4.998152217030713,4.43797114220745,5.874674498137587,-1.0731729176600262,16.90165759357025,-22.057587595773626
5.042531928452787,4.606987718143153,5.863942768960986,-1.2937487936177625,17.991178278169084,-23.804617112418878
5.088601805634219,4.786899500924844,5.8510052810248085,-1.5317949647419513,19.1781760736829,-25.590594073015357
5.136470800643467,4.978681261661673,5.835687331377389,-1.787700905472105,20.424457494874726,-27.344758285172123
5.186257613260084,5.18292583661042,5.817810322322668,-2.061148488323826,21.652185977118975,-28.937620750638217
5.238086871626188,5.39944769638161,5.79719883743943,-2.350524695830208,22.720566079395475,-30.147713368695623
5.2920813485900045,5.626653357175565,5.773693590481128,-2.6520018295171646,23.396395655824563,-30.620076952391457
5.34834788216176,5.86061731373381,5.7471735721859565,-2.958202599041079,23.327771440281097,-29.830112612002143
5.4069540552990984,6.093895028136621,5.717591546195545,-3.2565037251611004,22.048026242182665,-27.091860040359194
5.467893005580465,6.314375290558448,5.685026508943935,-3.527422325564692,19.06204857064241,-21.68539232822707
5.531036758486049,6.504995776264872,5.649752285688288,-3.7442762488469628,14.07040716396128,-13.182257011087275
5.596086716248698,6.645699847904485,5.612309523199818,-3.8760988189578356,7.298793646927501,-1.9218997288070667
5.662543714727743,6.71868778437376,5.57354853501024,-3.8953178162459063,-0.3037992819502877,10.699877750733224
5.729730592571481,6.715649791554257,5.534595356847781,-3.788319038738574,-7.327141838148332,22.602870637239448
5.796887090487023,6.6423783731727735,5.496712166460395,-3.56229033236618,-12.581649535316387,32.00222625399106
5.863310874218751,6.516561877819609,5.461089263136733,-3.2422680698262694,-15.632994868159486,38.188337768186
5.928476492996947,6.360231929138014,5.4286665824384706,-2.860384692144409,-16.765986026081553,41.49400077163325
5.9920788122883275,6.192572068877198,5.400062735517026,-2.4454446844280766,-16.587847772371727,42.737087867840195
6.0540045329771,6.026693591153481,5.375608288672745,-2.0180738057496748,-15.684956107328478,42.72762670540552
6.114271468888634,5.869844030080196,5.355427550615248,-1.5907975386956195,-14.48325444998974,42.0601791539157
6.172969909189436,5.725011485580298,5.339519575228292,-1.1701957471564626,-13.246388962272833,41.103525429666135
6.230220024045239,5.59254759595757,5.327817617756727,-0.7591604928598013,-12.120360178440526,40.05969144869085
6.286145500004815,5.471343994173165,5.320226012828129,-0.35856357837289277,-11.17798046188852,39.025348657892685
6.340858939946546,5.35956418955428,5.3166403770444,0.03168990820603412,-10.450335511104809,38.03637086998254
6.394454581842089,5.255060834443231,5.31695727612646,0.41205361690585957,-9.94605605502513,37.09592269422673
6.4470051901865215,5.15560027389298,5.321077812295519,0.7830128438481269,-9.662193172444084,36.19101297964183
6.498561192925451,5.0589783421685395,5.328907940734,1.1449229736445452,-9.589987977188358,35.30194094867382
6.5491509763471365,4.9630784623966555,5.340357170470446,1.4979423831312833,-9.71773676664281,34.40762432272306
6.598781760971103,4.865901094730227,5.355336594301758,1.8420186263585139,-10.032082064238072,33.488611329841774
6.647440771918405,4.765580274087847,5.373756780565343,2.1769047396569317,-10.518498162407392,32.52879999945209
6.695096574659284,4.660395292463773,5.3955258279619125,2.5021927396514525,-11.161406832020441,31.516423157032172
6.741700527583922,4.548781224143569,5.420547755358427,2.8173569712217743,-11.944168341052233,30.444592928569993
6.787188339825358,4.4293395407330465,5.448721325070645,3.121802900507474,-12.849084427866497,29.311553295888963
6.831481735232688,4.3008486964543815,5.47993935407572,3.414918433466364,-13.857486733406354,28.120713058555904
6.874490222197232,4.162273829120318,5.514088538410383,3.696125564051923,-14.949945603076463,26.88049498347996
6.9161129604884355,4.012774373089553,5.551049794050902,3.9649305138867224,-16.106608846979046,25.604022911791514
6.956240704219331,3.851708284619763,5.590699099189769,4.220970743004638,-17.307662181444652,24.30866713764388
6.994757787065529,3.678631662805316,5.632908806619816,4.4640574143810765,-18.53388989105805,23.01547336750902
7.031544103693582,3.4932927638947358,5.677549380763627,4.694212148056167,-19.767304606134648,21.748508054757018
7.066477031332529,3.2956197178333895,5.724491502244189,4.911697228603737,-20.991808636502498,20.53416012894058
7.099433228510863,3.0857016314683645,5.773608474530226,5.117038829893143,-22.193845942190684,19.40044403746322
7.130290244825547,2.8637631720464576,5.824778862829158,5.311043270267775,-23.36300331276745,18.376349914696924
7.158927876546011,2.630133138918783,5.877889295531835,5.494806769414744,-24.49252093167675,17.49128207019773
7.185229207935199,2.3852079296020157,5.932837363225983,5.669719590116721,-25.579674625462808,16.77461516574093
7.2090812872312195,2.1294111833473877,5.98953455912715,5.837465741774131,-26.62599184539191,16.255376037702998
7.230375399064694,1.8631512648934685,6.047909216544891,6.000019502151161,-27.637255953236895,15.962023972180964
7.249006911713629,1.5867787053610996,6.1079094115664025,6.1596397418729705,-28.62323078781427,15.922245592650846
7.2648746987672395,1.300546397482957,6.169505808985132,6.318862197799479,-29.59698689067165,16.16258776703169
7.277880162742069,1.0045765285762405,6.232694430963127,6.480488075469796,-30.57361093595954,16.707596283495644
7.287925928027832,0.6988404192166451,6.297499311717825,6.647564038304752,-31.567895890426307,17.577862206397754
7.2949143322199985,0.383161460312382,6.363974952100873,6.82334266036873,-32.59028546894554,18.785923088587975
7.298745946823122,0.05725860562292662,6.43220837870456,7.0112018912546095,-33.639801593089594,20.32820446705043
7.299318532879352,-0.27913941030796935,6.5023203976171065,7.214483935925114,-34.69182870303136,22.169981026075067
7.2965271387762725,-0.626057697338283,6.574465236976358,7.436183746185865,-35.67746695220914,24.218663104058297
7.2902665618028895,-0.9828323668603743,6.648827074438216,7.6783703772264476,-36.45014889021619,26.27914888023025
7.280438238134286,-1.3473338557625363,6.725610778210481,7.94116186602875,-36.73624402478522,27.986087911649353
7.26696489957666,-1.7146962960103886,6.805022396870768,8.221022745145243,-36.07498199622166,28.719269883482912
7.249817936616556,-2.075446115972605,6.887232624322221,8.508215443980072,-33.78081031311931,27.5461254892753
7.22906347545683,-2.4132542191037984,6.972314778762021,8.783676698872824,-29.019698327954245,23.315849265887895
7.204930933265793,-2.703451202383341,7.060151545750749,9.016835191531703,-21.148584770447446,15.110801501604216
7.177896421241959,-2.9149370500878153,7.150319897666066,9.167943206547745,-10.362973125053456,3.121031671219548
7.148747050741081,-3.01856678133835,7.241999329731543,9.199153523259941,1.771350569786221,-10.633520348787432
7.118561382927697,-3.0008532756404875,7.333990864964143,9.092818319772066,12.745902144526195,-22.880946977405255
7.088552850171292,-2.8733942541952255,7.424919048161864,8.864008849998013,20.546083058164427,-31.03147435055527
7.0598189076293405,-2.667933423613581,7.513559136661844,8.553694106492461,24.695744737882727,-34.55447164964812
7.033139573393204,-2.420975976234754,7.599096077726769,8.20814938999598,25.960775312100225,-34.53912511243324
7.008929813630857,-2.1613682231137514,7.681177571626729,7.862758138871647,25.451127285347734,-32.4767799109087
6.987316131399719,-1.9068569502602741,7.759805153015446,7.53799033976256,24.05573788804724,-29.522418370892673
6.968247561897116,-1.6662995713798017,7.835185056413072,7.242766156053634,22.325589393030874,-26.363300565160305
6.951584566183318,-1.4430436774494928,7.907612717973608,6.97913315040203,20.553008653978964,-23.341358173327347
6.937154129408824,-1.2375135909097033,7.977404049477628,6.745719568668757,18.873868040706416,-20.596632603002448
6.924778993499727,-1.0487749105026392,8.044861245164316,6.539753242638732,17.340197542357544,-18.165631487268673
6.9142912443947,-0.8753729350790638,8.110258777590703,6.358096927766046,15.96267172805411,-16.0371558753759
6.90553751504391,-0.7157462177985227,8.173839746868364,6.197725369012287,14.733275401262416,-14.181049143804831
6.8983800528659245,-0.5684134637858985,8.235817000558487,6.055914877574239,13.636740858103384,-12.562020325360162
6.892695918228066,-0.4320460552048647,8.296376149334229,5.930294674320637,12.65604810727672,-11.145807390709015
6.888375457676017,-0.30548557413209754,8.355679096077436,5.8188366004135466,11.774903001016416,-9.901585677794044
6.885320601934696,-0.18773654412193339,8.413867462081571,5.719820743635606,10.978720113604938,-8.802615014380923
6.883443236493477,-0.077949342985884,8.471065669517927,5.631794593491796,10.25488965015259,-7.826112384790506
6.882663743063618,0.0245995535156419,8.527383615452845,5.553533469643892,9.59271934856143,-6.9528259468013704
6.882909738598774,0.1205267470012562,8.582918950149283,5.484005210175878,8.983244010086754,-6.166532004934961
6.884115006068787,0.21035918710212373,8.637759002251041,5.422339890126529,8.418994946800092,-5.4535520991338045
6.886218597939808,0.29454913657012466,8.691982401152307,5.367804369135191,7.893771292791172,-4.802327638633474
6.88916408930551,0.3734868494980364,8.74566044484366,5.3197810927488565,7.402430196965178,-4.203061784516812
6.89289895780049,0.44751115146768816,8.798858255771147,5.277750474903688,6.9407008603411455,-3.6474262232166446
6.897374069315167,0.5169181600710996,8.851635760520184,5.241276212671521,6.505021810232546,-3.128325949208001
6.902543250915878,0.5819683781734251,8.9040485226469,5.209992953179441,6.0923984591976215,-2.6397141627240153
6.908362934697612,0.6428923627654013,8.956148452178693,5.183595811552201,5.700277218556673,-2.176449910458735
6.914791858325266,0.699895134950968,9.007984410294215,5.161831312447614,5.326432385009353,-1.734192197995479
6.921790809674776,0.7531594588010615,9.059602723418692,5.144489390467659,4.9688622779447265,-1.309325531869624
6.929322404262787,0.8028480815805088,9.111047617323369,5.131396135148963,4.625691478099349,-0.8989130020778945
6.937350885078592,0.8491049963615023,9.162361578674858,5.122407005128184,4.295076425669542,-0.5006740012423181
6.945841935042207,0.8920557606181977,9.21358564872614,5.117400265115761,3.975112062855477,-0.11298444853986851
6.954762492648389,0.9318068812467525,9.264759651377297,5.116270420630363,3.6637376766174796,0.26510209207634633
6.9640805614608565,0.9684442580129273,9.3159223555836,5.118921441551126,3.358640665098056,0.6338137873752108
6.9737650040409855,1.0020306646639079,9.367111569999112,5.125259579424878,3.057157693181794,0.9926019409540356
6.983785310687624,1.032602241595726,9.418364165793362,5.135185598834418,2.7561737199707257,1.340066590946633
6.994111333103581,1.0601639787954331,9.469716021781705,5.1485862647438845,2.4520207961650446,1.6738696977439256
7.004712972891536,1.0846841867570836,9.521201884429145,5.165324961721324,2.1403804803196995,1.9906413383547
7.015559814759107,1.1060879915602806,9.572855134046359,5.185231375104871,1.8161963465168678,2.2858873021541277
7.02662069467471,1.1242499550254492,9.624707447797407,5.208090248126412,1.4736064548610752,2.5539105722844386
7.037863194224965,1.13898601957406,9.676788350278672,5.233629353849256,1.10590984060677,2.787764429943491
7.0492530544207055,1.1500451179801277,9.729124643817165,5.2615069981486915,0.7055858734377982,2.9792611717009336
7.060753505600506,1.1571009767145057,9.781739713798652,5.291299609865701,0.2643902572314509,3.1190671363113704
7.072324515367652,1.1597448792868204,9.834652709897309,5.322490281228815,-0.22644447747923951,3.1969207577534675
7.08392196416052,1.157480434512028,9.887877612709596,5.3544594888063495,-0.7758744737059896,3.202013751943649
7.09549676850564,1.149721689774968,9.94142220759766,5.386479626325786,-1.3925495532612584,3.1235734429528152
7.10699398540339,1.1357961942423553,9.995287003860916,5.417715360755315,-2.0841417600092904,2.9516730070856054
7.118351947345814,1.1149547766422625,10.049464157468469,5.447232090826171,-2.856502278717497,2.6782722972526183
7.129501495112237,1.0863897538550875,10.103936478376731,5.474014813798697,-3.7126843344797056,2.2984523636504064
7.1403653926507875,1.0492629105102904,10.158676626514717,5.496999337435201,-4.651913322818052,1.8117525759320277
7.150858021755891,1.00274377728211,10.213646619889069,5.515116863194522,-5.668634243538476,1.2234568631850415
7.1608854595287115,0.9460574348467252,10.268797788521013,5.527351431826372,-6.751809019723116,0.5456188847125587
7.170346033877179,0.878539344649494,10.324071302839277,5.5328076206734975,-7.884656007655317,-0.20241460417919102
7.179131427323673,0.7996927845729408,10.379399379046012,5.530783474631706,-9.045003514195102,-0.9942050300827108
7.187128355169403,0.7092427494309897,10.43470721379233,5.520841424330879,-10.206357291801432,-1.7972892506701104
7.194220782663713,0.6071791765129755,10.489915628035638,5.502868531824178,-11.339662194261967,-2.575111396217217
7.200292574428842,0.4937825545703558,10.544944313353879,5.477117417862006,-12.415593296839758,-3.2896405228088983
7.205230399974546,0.36962662160195825,10.5997154875325,5.444221012633917,-13.407080912591317,-3.9043304224819764
7.208926666190566,0.23555581247604507,10.654157697658839,5.405177708409097,-14.291699790511851,-4.386978385476805
7.211282224315326,0.09263881457092654,10.70820947474293,5.361307924554329,-15.053564015697699,-4.712042154330638
7.212208612461035,-0.05789682558605044,10.761822553988473,5.314187503011023,-15.684466549987757,-4.862081997780614
7.211629644205175,-0.21474149108592802,10.814964429018584,5.265566683033216,-16.18415716932969,-4.828174825188833
7.2094822292943155,-0.37658306277922493,10.867620095848917,5.217284934781328,-16.559818292602152,-4.609344334559056
7.205716398666524,-0.5421812457052464,10.91979294519673,5.171191491435738,-16.824929771174432,-4.211210737259818
7.200294586209471,-0.7104305434169907,10.971504860111088,5.1290793840631395,-16.997783627668795,-3.644151368761834
7.193190280775301,-0.8804083796936787,11.02279565395172,5.092637870375521,-17.099914241821583,-2.9212733364612324
7.184386196978364,-1.0514075221118946,11.073722032655475,5.063425137010909,-17.154664085999862,-2.056448281999589
7.173872121757245,-1.2229541629718932,11.124356284025584,5.042860654190913,-17.186034255355523,-1.0625754109788579
7.161642580127526,-1.3948145055254484,11.174784890567492,5.032234900081124,-17.21789596095429,0.04985075327431019
7.147694435072272,-1.5669934651349913,11.225107239568304,5.0327334076138674,-17.273579782229852,1.2738681992177456
7.132024500420922,-1.7397292629572898,11.275434573644443,5.0454720896060445,-17.375820969545693,2.606926535893854
7.114627207791349,-1.9134874726527467,11.325889294540504,5.0715413549649835,-17.547021608361497,4.05160696115697
7.095492333064821,-2.0889576887363615,11.376604708090154,5.1120574245765535,-17.80979009583729,5.616289767409463
7.074602756177457,-2.2670555896947344,11.427725282335919,5.168220322250648,-18.18772974311476,7.315882636208677
7.051932200280509,-2.448932887125882,11.479407485558426,5.241379148612735,-18.706465979976937,9.172724326186845
7.02744287140925,-2.6359975469256516,11.531821277044553,5.333106391874603,-19.394920231390657,11.217776865414805
7.0010828959399936,-2.829946749239558,11.5851523409633,5.445284160528751,-20.286851155964282,13.492211958582146
6.972783428447598,-3.0328152607992007,11.639605182568587,5.580206280114573,-21.422677981218545,16.049470379027838
6.942455275839606,-3.2470420406113862,11.695407245369733,5.740700983904851,-22.851548402467394,18.95779034314102
6.909984855433493,-3.47555752463606,11.752814255208781,5.930278887336262,-24.633450703919863,22.302974626955404
6.875229280187132,-3.721892031675259,11.812117044082143,6.153308633605816,-26.840746556796542,26.190589920158715
6.838010359870379,-3.990299497243224,11.873650130418202,6.415214532807403,-29.557468173146365,30.745382005366526
6.798107364897947,-4.285874178974688,11.937802275746277,6.722668352861069,-32.8722731071513,36.10232287316731
6.7552486231082005,-4.614596910046201,12.005028959274888,7.083691581592742,-36.85525237101803,42.37582472289992
6.709102654007738,-4.983149433756381,12.075865875090816,7.507449828821741,-41.495947321417766,49.57579180360734
