th1 (rad),w1 (rad/s),th2 (rad),w2 (rad/s)
5.2993367754614065,2.1288501417846772,5.575990195910672,1.8442127412211025
5.3206252768792535,2.2434450762201914,5.5944323233228825,1.7852676754893277
5.343059727641456,2.357694786292383,5.612285000077776,1.7239510006483738
5.366636675504379,2.471374854475126,5.62952451008426,1.6605064026543588
5.39135042404913,2.5842269131209052,5.6461295741108035,1.595252933262345
5.417192693180339,2.695952299129015,5.662082103443427,1.5285963682816497
5.444152216171629,2.8062052776037794,5.677368067126244,1.4610407036188262
5.472214268947667,2.914586116493409,5.691978474162432,1.3931992393927994
5.501360130112601,3.0206344734931885,5.70591046655636,1.3258044311080142
5.531566474847533,3.1238237761242242,5.719168510867441,1.2597153616461885
5.5628047126087745,3.2235575212168657,5.731765664483903,1.195921332645278
5.595040287820943,3.3191686584249487,5.743724877810355,1.13553973941392
5.6282319744051925,3.4099233978342274,5.755080275204494,1.07980616514778
5.662331208383534,3.4950308134083685,5.765878336855972,1.030054629159191
5.697281516517618,3.573659404257913,5.776178883147564,0.9876862952167674
5.733018110560198,3.6449612324416756,5.7860557460997315,0.9541258251233453
5.769467722884615,3.7081033321085934,5.795597004350965,0.9307660161624173
5.806548756205701,3.7623048282299707,5.804904664512589,0.9189033134085832
5.844171804488001,3.8068767987233745,5.814093697646674,0.9196689595902147
5.882240572475235,3.841260685932427,5.823290387242577,0.933962448411644
5.920653179334559,3.86506041223865,5.832630011726693,0.9623949804631132
5.959303783456946,3.8780636215683773,5.842253961531324,1.0052502666091567
5.9980844196726295,3.8802487755174293,5.852306464197416,1.0624680877543125
6.036886907427804,3.871776974889021,5.862931145074959,1.133652792275512
6.0756046771766945,3.8529698472828446,5.874267672997714,1.2181051376151386
6.114134375649523,3.8242769985531835,5.8864487243738655,1.3148725145479911
6.152377145635055,3.7862378379910386,5.899597449519345,1.4228104407066033
6.190239524014965,3.739442819850356,5.9138255539264115,1.5406476528162936
6.227633952213468,3.684498409565547,5.929232030454575,1.6670480325302017
6.264478936309123,3.621998741258613,5.945902510779876,1.8006644616579326
6.3006989237217095,3.5525054181431295,5.963909155396456,1.9401818859601163
6.336223977903141,3.476535574789193,5.983310974256057,2.084348840444223
6.370989333651033,3.394557369356639,6.004154462660499,2.231998141871767
6.404934907344599,3.306991549395817,6.026474444079216,2.382058300470633
6.438004822838558,3.21421757486656,6.050295027083923,2.533557517016067
6.470146998587223,3.116582877364735,6.075630602254083,2.685622063680893
6.501312827360871,3.014414073811936,6.102486822890892,2.8374705565147393
6.531456968098991,2.908029247061581,6.130861528456039,2.988405244674407
6.560537260569607,2.7977506951654942,6.160745580902783,3.1378010565704053
6.588514767521262,2.683917800932721,6.192123591468487,3.2850928091204774
6.615353945530589,2.5668998666362164,6.224974519559692,3.4297607304334954
6.641022944196951,2.4471088868497755,6.259272126864027,3.571314281257663
6.665494033065449,2.325012288963564,6.294985269676603,3.7092741947660146
6.688744155955084,2.2011456467076,6.332078011624263,3.8431526988340217
6.71075561242216,2.076125252582211,6.370509538612604,3.9724320579109422
6.731516864947982,1.95066020107995,6.410233859191713,4.096541898357791
6.751023466958781,1.8255632656898213,6.451199278175291,4.214836290056705
6.769279099615679,1.701759337339718,6.493347641075858,4.32657226715675
6.786296692989077,1.580289544852634,6.536613363747426,4.430892368462558
6.802099588437604,1.4623084666864279,6.580922287432052,4.526814781167976
6.816722673104468,1.349071220623321,6.626190435243731,4.613235584708881
6.830213385310701,1.241906949004009,6.67232279109082,4.688948066623795
6.842632454800741,1.1421756727858674,6.7192122717570575,4.752683622483999
6.8540542115286,1.0512070699642477,6.7667391079818975,4.8031768078990424
6.8645662822282425,0.9702226961437864,6.814770876060888,4.83925331766023
6.8742685091896805,0.9002473437266179,6.86316340923749,4.85993420658619
6.8832709826269465,0.84201980339239,6.911762751303352,4.864543604715961
6.89169118066087,0.7959167434229041,6.960408187350512,4.852802494207372
6.899650348095099,0.7619040123759239,7.008936212292586,4.824890127405394
6.907269388218858,0.7395262658030509,7.057185113566639,4.781458897694592
6.9146646508768885,0.7279387603367656,7.104999702543585,4.72359749950274
6.921944038480256,0.7259764796923674,7.152235677538613,4.652748366609842
6.92920380327718,0.7322483833627151,7.198763161204711,4.570594816430189
6.936526287110807,0.74524089662811,7.244469109369013,4.478937927709709
6.943978696077088,0.7634155249336196,7.2892584886461105,4.3795820238281955
6.951612851326424,0.7852896289267417,7.3330543088843925,4.2742421499609575
6.959465747615692,0.8094949303550486,7.375796730384002,4.164479775689743
6.967560696919242,0.8348133461250794,7.4174415281409,4.051666577123139
6.975908830380493,0.8601931810444741,7.457958193912131,3.936971922874724
6.984510762190937,0.8847503440919467,7.497327913140879,3.821367812191466
6.993358265631857,0.9077594603712595,7.535541591262794,3.705644957459672
7.002435860235569,0.9286391009437106,7.5725980408373905,3.590434699995603
7.011722251245006,0.9469343523673058,7.608502387837347,3.476232834730748
7.021191594768679,0.9622989357680028,7.643264716184654,3.363422766537777
7.030814584126359,0.9744782343577786,7.6768989438500315,3.2522965204433105
7.040559366469937,0.9832939528214001,7.7094219090544645,3.1430729251320617
7.050392305998151,0.9886306997621237,7.740852638305785,3.035912812140165
7.060278612995772,0.9904245154337539,7.771211766427187,2.9309313821612037
7.070182858150109,0.9886532163178692,7.8005210802487985,2.828208048068377
7.080069390313287,0.9833283565447911,7.828803160729482,2.72779412464457
7.089902673878735,0.9744885837218142,7.856081101975928,2.6297187371128685
7.099647559715954,0.9621941723657208,7.882378289347057,2.533993291413058
7.109269501439611,0.9465225380123753,7.907718222261187,2.4406148060378383
7.118734726819735,0.9275645606606533,7.932124370321565,2.3495683584150435
7.128010372426341,0.905421572581591,7.955620053905716,2.2608288539436447
7.137064588152157,0.8802028901012575,7.978228342445153,2.1743622855861324
7.145866617053169,0.8520237905942304,7.999971965301014,2.0901266173783406
7.154386854959111,0.8210038542806349,8.020873231474797,2.0080723963675013
7.1625968935019175,0.7872656056272042,8.040953955438471,1.92814317387338
7.17046954955819,0.7509334015481746,8.060235387177205,1.8502757979268993
7.1779788835736715,0.7121325235978887,8.078738145156473,1.7744006235726975
7.185100208809651,0.6709884393581882,8.0964821513922,1.7004416757608278
7.191810093203233,0.6276262046287965,8.113486568149808,1.62831679020627
7.198086355249521,0.5821699831555208,8.129769736051871,1.5579377503561798
7.203908055081077,0.5347426647524811,8.145349113555433,1.4892104330503144
7.209255481728602,0.48546556601267243,8.160241217885936,1.422034971241699
7.214110137388729,0.4344582005326063,8.174461567598353,1.3563059389795242
7.218454719394055,0.38183810783971134,8.188024626988149,1.2919125615166869
7.222273100472452,0.3277207321119788,8.200943752603315,1.2287389517080036
7.225550307793572,0.2722193433987197,8.213231142120396,1.1666643726669685
7.2282725012275595,0.21544499544952533,8.224897785847066,1.1055635258343157
7.2304269511820545,0.15750651547983413,8.235953421105409,1.0453068630904185
7.232002016336853,0.09851052227772224,8.246406489736312,0.9857609212453122
7.23298712155963,0.03856147000993614,8.256264098948765,0.9267886771102882
7.23337273625973,-0.022238284069143174,8.265531985719868,0.8682499213516262
7.233150353419038,-0.08378838905430255,8.274214484933385,0.8100016494181261
7.2323124695284955,-0.1459903873654919,8.282314501427566,0.7518984679954157
7.230852565654841,-0.20874757909067138,8.28983348610752,0.693793015653172
7.228765089863934,-0.2719648630460688,8.296771416264052,0.6355363966023136
7.226045441233474,-0.33554855351650026,8.303126780230075,0.5769786267566976
7.222689955698309,-0.39940617134108236,8.308896566497642,0.5179690915884405
7.218695893984898,-0.4634462078048046,8.314076257413527,0.45835701556893726
7.21406143190685,-0.5275778596861403,8.318659827569217,0.39799194329006976
7.208785653309988,-0.5917107337973078,8.322639747002118,0.33672423265220847
7.202868545972015,-0.6557545194390227,8.32600698932864,0.2744055607761719
7.196311000777625,-0.7196186273775377,8.328751044936402,0.21088944353215705
7.189114814503849,-0.7832117942401806,8.330859939371724,0.14603176976442547
7.181282696561447,-0.8464416516180235,8.332320257069368,0.07969135140848287
7.172818280045267,-0.9092142596620103,8.333117170583453,0.011730490727530907
7.163726137448648,-0.9714336055628284,8.333234475490729,-0.05798443418520166
7.154011801393019,-1.0330010680155617,8.332654631148877,-0.12958236470619494
7.143681790712863,-1.093814849587589,8.331358807501815,-0.20318693722586734
7.132743642216988,-1.1537693798311985,8.329326938129556,-0.2789158389403864
7.121205948418676,-1.2127546930084085,8.326537779740152,-0.3568801446670865
7.109078401488592,-1.2706557854198821,8.322968978293481,-0.4371836364696422
7.096371843634393,-1.3273519585450186,8.318597141928786,-0.5199221091489272
7.083098324048943,-1.3827161554948593,8.313397920837296,-0.60518266620354
7.069271162493994,-1.4366142996367983,8.30734609417526,-0.6930430127034196
7.0549050194976255,-1.48890464564735,8.300415664048225,-0.7835707536566441
7.040015973041152,-1.5394371546556505,8.29257995651166,-0.8768227088799982
7.024621601494595,-1.5880529065160571,8.28381172942286,-0.9728442580935469
7.008741072429435,-1.634583563542618,8.274083286841924,-1.0716687329202579
6.9923952367940085,-1.6788509011890755,8.263366599512722,-1.1733168756404075
6.975606727782118,-1.720666422090716,8.251633430756318,-1.2777963878667926
6.958400063561211,-1.7598310705112847,8.23885546687765,-1.3851015956920936
6.940801752856098,-1.7961350644597684,8.22500445092073,-1.4952132612165814
6.9228404022115,-1.8293578624479383,8.210052318308565,-1.6080985735764677
6.904546823587021,-1.8592682809323942,8.193971332572799,-1.7237113555269676
6.885954140777697,-1.8856247768035463,8.17673421901753,-1.8419925241412376
6.867097893009661,-1.9081759067308806,8.158314293776117,-1.9628708461080075
6.848016133942353,-1.9266609716429934,8.138685585315036,-2.086264029283491
6.828749524225922,-1.9408108500288535,8.117822945022201,-2.212080192416165
6.809341415725634,-1.950349018045986,8.09570214309804,-2.340219754166258
6.789837925545174,-1.9549927476163627,8.072299945556377,-2.4705777805545766
6.77028799806901,-1.9544544658575411,8.047594167750832,-2.6030468266933378
6.7507434534104345,-1.9484432505049556,8.021563699483899,-2.737520304000678
6.731259020905385,-1.9366664267223692,7.994188496443892,-2.873896398032174
6.7118923566381605,-1.9188312213171466,7.96544953246357,-3.012082554538652
6.692704044424989,-1.8946464215183003,7.935328706918183,-3.152000542314017
6.673757580209806,-1.863823978036568,7.903808701495042,-3.293592090667928
6.65511934042944,-1.8260804873435579,7.870872780588363,-3.4368250865690033
6.636858535556005,-1.7811384876805096,7.836504529722673,-3.5817003008696195
6.6190471506792,-1.7287275095918082,7.800687526713977,-3.72825859304101
6.601759875583282,-1.6685848380911905,7.763404940783567,-3.876588516815567
6.58507402720237,-1.6004559746747409,7.724639055615412,-4.026834210400595
6.5690694674556225,-1.524094840280662,7.684370713511406,-4.179203396731404
6.553828519052816,-1.4392638453912887,7.6425786795440915,-4.333975228902292
6.539435880598903,-1.3457340865648164,7.599238927255069,-4.4915075731086045
6.525978539733255,-1.2432861338706713,7.554323851523983,-4.652243093897214
6.513545678394548,-1.1317121878578462,7.507801420585011,-4.816713143684529
6.50222855651597,-1.0108208639925123,7.459634289148165,-4.985537882032784
6.492120347876044,-0.8804465914720531,7.409778910327837,-5.159420140737772
6.483315881961324,-0.7404667159216654,7.35818470892046,-5.339129131123428
6.475911214802107,-0.5908310452884187,7.3047934176092255,-5.525467907934379
6.470002904349222,-0.43161099735804626,7.249538738529882,-5.719215229028921
6.4656867943756415,-0.2630789258594537,7.1923465862395926,-5.921027718667382
6.463056005117047,-0.08583271042457524,7.133136309052919,-6.131281848150169
6.462197678012801,0.09901415928390622,7.0718234905714175,-6.349827675908164
6.463187819605641,0.2895529318630506,7.008325213812336,-6.5756199911916235
6.466083348924271,0.4826890831712264,6.94256901390042,-6.806194507023166
6.470910239755983,0.6736408324771674,6.874507068830188,-7.03698292932677
6.477646648080754,0.8553871095265349,6.804137239536921,-7.2605398247609845
6.48620051917602,1.0182507414996442,6.731531841289311,-7.46592183995172
6.496383026591016,1.1499926429914702,6.656872622889793,-7.638717877866112
6.507882953020931,1.2369468553823024,6.580485444111132,-7.762442977695659
6.520252421574754,1.2665679256353966,6.502861014334176,-7.821803989607812
6.5329181008311075,1.2309812302759904,6.424642974438098,-7.80729918524066
6.545227913133868,1.1299592925752502,6.346569982585691,-7.7190479940562
6.55652750605962,0.9713853966237946,6.269379502645129,-7.567280588339807
6.566241360025858,0.7686917361442073,6.193706696761731,-7.368860773083839
6.5739282773873,0.5368633162217314,6.120018089030892,-7.14202607716795
6.579296910549518,0.28918958794975436,6.048597828259212,-6.902248598742408
6.5821888064290155,0.03577470281753736,5.979575342271788,-6.660487476972906
6.582546553457191,-0.21650168909678458,5.912970467502059,-6.4233417534835064
6.5803815365662235,-0.46333048790888937,5.848737049967224,-6.194058174351138
6.575748231687134,-0.7021937684807581,5.786796468223713,-5.973642153987227
6.568726294002326,-0.9317168194228801,5.727060046683841,-5.761750843069843
6.559409125808098,-1.151208475381755,5.669442538253143,-5.557312863347091
6.54789704105428,-1.3603635362098923,5.613869409619672,-5.358923360115338
6.534293405692181,-1.5590821235727501,5.5602801760185185,-5.165081993653988
6.518702584456453,-1.7473662993960226,5.508629356081979,-4.974329946389471
6.501228921462493,-1.9252651613923342,5.458886056618084,-4.78532506961182
6.48197626984857,-2.0928492525252502,5.411032805921966,-4.596880232793214
6.4610477773233175,-2.2502020639460607,5.365064003594034,-4.407980146781982
6.438545756683856,-2.397421002156063,5.320984202126214,-4.217785655208493
6.4145715466622955,-2.534623102544435,5.278806345574129,-4.025630652544569
6.3892253156368515,-2.661952585121227,5.238550039048683,-3.8310145217040676
6.362605789785639,-2.7795884766847085,5.200239893831643,-3.6335916889162965
6.334809905018792,-2.8877512345251124,5.16390397694248,-3.4331591836449142
6.305932392673541,-2.986707765606496,5.129572385106031,-3.2296427272606705
6.276065315017476,-3.0767745410821177,5.097275957833425,-3.0230817093749867
6.245297569606655,-3.1583187167171016,5.067045140739675,-2.813613355694727
6.213714382439484,-3.231757318032155,5.038909007182728,-2.6014563914044446
6.181396809259162,-3.2975546527460846,5.012894443268683,-2.386894526450804
6.148421262731701,-3.3562181820303287,4.9890254980041755,-2.1702601144117692
6.114859080911398,-3.4082931213422216,4.967322896860058,-1.9519183546121734
6.080776149697975,-3.4543560540841027,4.947803713313935,-1.7322524137368982
6.0462325891571345,-3.4950078289544075,4.930481189176566,-1.5116498387888506
6.0112825108675905,-3.5308659761045122,4.915364690788678,-1.2904906215373229
5.975973851106545,-3.562556819299443,4.9024597845733044,-1.0691372617874717
5.9403482829135505,-3.5907073819931035,4.89176841195543,-0.8479271709470824
5.904441209093619,-3.6159370846622925,4.883289140245959,-0.6271677679719072
5.868281838246996,-3.638849107988012,4.87701746256624,-0.40713465735735704
5.8318933471671155,-3.6600211494436716,4.872946115992666,-0.18807335447620394
5.7952931356726785,-3.6799951264966313,4.871065382447904,0.02979485198638307
5.758493184407712,-3.6992651749256353,4.871363330967768,0.24626212871695838
5.721500532658456,-3.7182630551924176,4.873825952254938,0.46111740304227483
5.684317902106532,-3.737339820597778,4.878437126285361,0.6741224364725601
5.646944503900554,-3.7567423429336078,4.8851783506500865,0.8849790495302048
5.6093770804712175,-3.7765830943985303,4.894028141145388,1.0932856438257883
5.5716112495272325,-3.7968015720247106,4.904960997583646,1.2984811780623315
5.533643233806986,-3.817116151047182,4.917945809364269,1.4997753360755364
5.495472072296514,-3.836966349322629,4.932943562725025,1.6960653149847786
5.457102408803288,-3.8554480458426807,4.949904215874873,1.8858432560630765
5.418547928344861,-3.8712488250105115,4.968762648435503,2.067104814625114
5.379835440094755,-3.8825978646661934,4.989433696581755,2.237279466664651
5.341009461448094,-3.887254317039617,5.011806491248401,2.3932163722749253
5.302136918277697,-3.882567418820888,5.0357386549711505,2.531272353694839
5.263311244089489,-3.8656443931146027,5.061051378508099,2.6475520182417775
5.224654800158343,-3.833648713456563,5.087526898690516,2.738330416598765
5.1863183130237775,-3.7842127093411055,5.114910202856504,2.8006336761239754
5.148476185930367,-3.7158882255938006,5.142916539617744,2.8328679318620096
5.111317303674428,-3.628503822367684,5.171245218936364,2.8353096199565497
5.075032265450751,-3.523290736153135,5.19959831513593,2.810262843395094
5.03979935808922,-3.4027095628650263,5.2277009435698805,2.7617898196629658
5.00577226246057,-3.2700282482942127,5.25531884176651,2.6950892759662963
4.973071979977628,-3.1287970245604857,5.282269734526173,2.6157320932503034
4.941784009732023,-2.9823803276436673,5.308427055458676,2.528982850561349
4.9119602064555865,-2.83364569867926,5.333716883964289,2.4393495484793504
4.883623749468794,-2.684827845056666,5.358110379449083,2.350386761623259
4.856775471018227,-2.5375294112565796,5.381614247065316,2.2646966073113712
4.831400176905661,-2.392801725309399,5.4042612131384296,2.184045830037705
4.807472159652567,-2.2512568456350475,5.426101671438807,2.1095288458498174
4.784959591196217,-2.113179609949306,5.447196959897305,2.0417314813528993
4.763827795096724,-1.9786242430819154,5.467614274710834,1.980872898256788
4.744041552665904,-1.8474906906067434,5.487423003693402,1.9269184749905492
4.725566645759837,-1.7195815233948357,5.506692188443307,1.8796646443886258
4.708370830525889,-1.594642594017224,5.525488834887193,1.8388001165769368
4.692424404585717,-1.4723911113407686,5.543876836052963,1.8039486765329718
4.677700493472309,-1.3525344415881837,5.561916322818292,1.7746982777557168
4.664175149056427,-1.234782307012748,5.579663305595849,1.7506202689493673
4.651827325986299,-1.1188544074168718,5.597169508285343,1.7312816812552485
4.640638781912131,-1.004484940135814,5.614482325097895,1.7162527240650325
4.630593932510773,-0.8914250648016919,5.631644852338545,1.7051110253661554
4.621679681862756,-0.7794440399907885,5.648695962592207,1.6974436955131238
4.613885241462848,-0.6683295287085314,5.665670399547338,1.6928479626103672
4.6072019461757625,-0.5578874070471581,5.682598879173441,1.6909308933723959
4.601623072105291,-0.44794129699492136,5.699508188107165,1.69130854973505
4.597143659135342,-0.33833196608158445,5.7164212736045155,1.6936048185449697
4.593760339474526,-0.22891668279503766,5.733357321789965,1.6974500743938226
4.591471172646576,-0.11956857993576242,5.750331822533903,1.702479783270513
4.590275486847218,-0.010176052955712514,5.767356620366608,1.7083331194951774
4.59017372631766,0.09935779685692978,5.78443995156156,1.714651644976106
4.5911673042862295,0.20911567629501687,5.801586468011321,1.7210780844258005
4.59325846104918,0.31916658138239734,5.818797248855579,1.7272552201576794
4.596450126863004,0.4295662616282291,5.836069801057156,1.7328249236248428
4.600745789479286,0.5403576873495406,5.853398050293404,1.737427336666252
4.606149366352781,0.6515715429911441,5.870772323660067,1.7407002125762556
