th1 (rad),w1 (rad/s),th2 (rad),w2 (rad/s),a1 (rad/s^2),a2 (rad/s^2)
3.440134093895464,0.786567472694252,5.469853397009263,-1.8069702019490899,6.431387610554322,9.414810052944032
3.4479997686224064,0.8508813487997952,5.451783694989772,-1.7128221014196496,6.215926129466361,9.191911219170843
3.4565085821104042,0.9130406100944588,5.4346554739755755,-1.6209029892279412,6.018873192905649,8.972147631416153
3.465638988211349,0.9732293420235153,5.418446444083296,-1.5311815129137796,5.8400536999876795,8.755271788258183
3.4753712816315843,1.031629879023392,5.403134628954158,-1.4436287950311977,5.679215151308166,8.540898395587323
3.485687580421818,1.0884220305364736,5.388698341003845,-1.3582198110753245,5.53604697833975,8.328525724480368
3.496571800727183,1.1437825003198712,5.375116142893092,-1.2749345538305208,5.410196729796573,8.11755401803281
3.5080096257303817,1.1978844676178368,5.362366797354787,-1.1937590136501928,5.301283498496245,7.9073011969528775
3.51998847040656,1.2508973026027994,5.350429207218285,-1.114686001680664,5.208908967433488,7.697016127279857
3.532497443432588,1.3029863922771343,5.339282347201479,-1.0377158404078652,5.132666437931221,7.485889711766423
3.5455273073553597,1.3543130566564465,5.328905188797401,-0.962856943290201,5.072148180435684,7.273064054233586
3.5590704379219242,1.4050345384608034,5.319276619364499,-0.8901263027478651,5.026951423139982,7.057639927328117
3.5731207833065324,1.4553040526922032,5.31037535633702,-0.8195499034745839,4.996683267554239,6.838682751342502
3.5876738238334545,1.5052708853677457,5.302179857302274,-0.7511630759611588,4.980964795038872,6.615227267042295
3.602726532687132,1.5550805333181343,5.294668226542663,-0.6850108032907358,4.979434605262319,6.386281060090808
3.618277338020313,1.6048748793707575,5.2878181185097555,-0.6211479926898278,4.9917520072027255,6.1508270694776455
3.6343260868140206,1.6547923994427847,5.281606638582857,-0.5596397219950513,5.01760006605586,5.907825187781397
3.6508740108084483,1.7049684001033434,5.276010241362906,-0.5005614701172373,5.056688695406499,5.65621303728576
3.6679236948094815,1.7555352870574084,5.271004626661734,-0.44399933974437966,5.1087579733005954,5.394905982881121
3.685479047680056,1.8066228667904143,5.26656463326429,-0.39005027991556845,5.173581853367251,5.122796420144927
3.70354527634796,1.8583586853240868,5.262664130465134,-0.3388223157141192,5.250972437775792,4.838752354751624
3.722128863201201,1.9108684097018447,5.259275907307993,-0.29043479216660295,5.340784977429028,4.541615267141555
3.741237547298219,1.964276259476135,5.256371559386327,-0.2450186394951874,5.442923766209411,4.230197233939014
3.7608803098929804,2.018705497138229,5.253921372991376,-0.20271666715579725,5.557349100080271,3.903277254819903
3.781067364864363,2.0742789881390316,5.251894206319817,-0.16368389460759822,5.684085478085793,3.5595967104582327
3.8018101547457532,2.1311198429198894,5.250257367373742,-0.1280879275030159,5.8232312303294815,3.1978538542316794
3.823121353174952,2.189352155223184,5.2489764880987115,-0.0961093889606991,5.974969767128595,2.816697218472586
3.845014874727184,2.24910185289447,5.248015394209104,-0.06794241677597324,6.13958265261116,2.414717796965885
3.8675058932561286,2.310497679420582,5.247335970041345,-0.04379523880631439,6.317464713231828,1.990439852128056
3.8906108700503346,2.3736723265529003,5.246898017653281,-0.02389084028503383,6.509141394132964,1.5423101927757088
3.9143475933158633,2.4387637404942297,5.246659109250431,-0.008467738357276742,6.715288569337424,1.0686857844496385
3.9387352307208054,2.505916626187604,5.246574431866859,0.0022191194872196434,6.936754988073497,0.5678196011848059
3.9637943969826814,2.575284176068339,5.2465966230617305,0.007897315499067702,7.174587487465046,0.03784472447713209
3.989547238743365,2.6470300509429894,5.246675596216721,0.008275762743839024,7.43005900303877,-0.5232431285658224
4.016017539252795,2.721330640973377,5.246758353844159,0.0030433314581807995,7.704699234207884,-1.117604164948458
4.043230845662529,2.798377633315456,5.246788787158741,-0.00813271019130378,8.000327526950503,-1.7475731849996803
4.071214621995684,2.878380908584961,5.246707460056828,-0.025608442041300583,8.319087049688493,-2.4156765853873248
4.099998431081533,2.961571779081846,5.246451375636415,-0.04976520789517383,8.663478550548644,-3.124644655793714
4.129614148872352,3.0482065645873324,5.245953723557463,-0.08101165445311097,9.036390722641174,-3.877414142996675
4.160096214518226,3.138570471813744,5.245143607012932,-0.11978579588307772,9.441122200856839,-4.6771129567190535
4.191481919236363,3.2329816938223126,5.2439457490541015,-0.16655692545026826,9.88138705357651,-5.527014077802488
4.223811736174587,3.3317955643580777,5.242280179799598,-0.22182706622829315,10.361290675256479,-6.430438282756923
4.257129691818167,3.4354084711106423,5.2400619091373155,-0.2861314490558624,10.88525525359186,-7.390573829783754
4.291483776529273,3.544261023646561,5.237200594646757,-0.36003718735369994,11.45786200965904,-8.4101636903362
4.326926386765739,3.658839643743151,5.23360022277322,-0.44413882425706197,12.083559044768199,-9.490984259633647
4.36351478320317,3.779675234190833,5.22915883453065,-0.5390486668533985,12.76615588023633,-10.632999606857155
4.401311535545078,3.9073367929931964,5.223768347862116,-0.64537866292197,13.507984826187538,-11.8330170519899
4.44038490347501,4.0424166412550715,5.217314561232896,-0.763708833441869,14.308551187784863,-13.082588009187942
4.480809069887561,4.18550215313292,5.209677472898477,-0.8945347135337485,15.162417307583292,-14.364791060640504
4.522664091418891,4.337126326208753,5.20073212576314,-1.0381826241401535,16.05597672012893,-15.649413810301418
4.566035354680978,4.497686093410042,5.1903502995217385,-1.1946767622431678,16.96270584697738,-16.885963564041447
4.611012215615078,4.667313151879816,5.178403531899307,-1.3635363978835822,17.836520002938737,-17.99401352262349
4.657685347133876,4.8456783519092035,5.164768167920471,-1.543476533109817,18.60321007792249,-18.850923030980503
4.706142130652968,5.031710452688428,5.149333402589373,-1.731985763419622,19.150984169793418,-19.278513799902214
4.756459235179853,5.223220294386363,5.132013544955177,-1.9247709014186443,19.323462380219947,-19.03366027184672
4.8086914381237165,5.416454918188562,5.112765835940991,-2.1151075041371117,18.922495723490698,-17.813548349289647
4.862855987305602,5.605679875423469,5.09161476089962,-2.2932429876300082,17.73291585051556,-15.293126792835173
4.918912786059837,5.783009033928625,5.06868233102332,-2.44617425555836,15.581921801279053,-11.213035210154924
4.976742876399124,5.938828251941415,5.044220588467736,-2.558304607659909,12.432308243481202,-5.516744139903275
5.036131158918538,6.0631513343762276,5.018637542391137,-2.613472049058942,8.474184582351935,1.5141946416169414
5.0967626722623,6.1478931801997465,4.992502821900548,-2.5983301026427728,4.1432981692437165,9.230766928611041
5.1582416040642975,6.1893261618921835,4.96651952087412,-2.5060224333566623,0.009696657692990288,16.775259160781207
5.220134865683219,6.189423128469113,4.941459296540553,-2.33826984174885,-3.4249079473380672,23.37490694476966
5.282029096967911,6.1551740489957325,4.918076598123065,-2.1045207723011536,-5.8928172136640935,28.586606443614244
5.343580837457868,6.096245876859092,4.897031390400054,-1.8186547078650113,-7.390981916666914,32.3492461664979
5.404543296226459,6.0223360576924225,4.878844843321404,-1.4951622462000322,-8.095855532422014,34.86742346562056
5.464766656803383,5.941377502368202,4.863893220859404,-1.1464880115438265,-8.249488283561758,36.44956788707358
5.524180431827065,5.858882619532585,4.852428340743965,-0.7819923326730907,-8.079811932193453,37.391781534861074
5.582769258022391,5.7780845002106505,4.844608417417234,-0.4080745173244799,-7.766692147403229,37.926112812301696
5.6405501030244976,5.7004175787366185,4.840527672243989,-0.028813389201462924,-7.438290981345131,38.212664130753765
5.697554278811864,5.626034668923167,4.840239538351975,0.3533132521060747,-7.180351180430946,38.351234487253514
5.753814625501096,5.554231157118858,4.843772670873036,0.7368255969786099,-7.047941577399837,38.39752724872592
5.809356937072284,5.48375174134486,4.851140926842822,1.120800869465869,-7.075356393993151,38.37754734097557
5.864194454485733,5.412998177404928,4.862348935537481,1.504576342875625,-7.2831913032124875,38.29855986449947
5.918324436259782,5.340166264372804,4.877394698966238,1.8875619415206195,-7.682930610861049,38.15690036622107
5.971726098903511,5.263336958264193,4.896270318381443,2.2691309451828303,-8.279702407686186,37.943427783663026
6.024359468486153,5.1805399341873315,4.918961627833272,2.6485652230194607,-9.07381086141163,37.647363881607504
6.076164867828026,5.089801825573216,4.945447280063466,3.0250388618355357,-10.061515817366944,37.259069122354475
6.127062886083758,4.989186667399546,4.975697668681821,3.3976295530590805,-11.235398894564865,36.772113959421155
6.176954752757753,4.876832678453898,5.009673964212412,3.7653506926532923,-12.584555652421265,36.18485766774987
6.225723079542292,4.750987121929685,5.047327471138946,4.127199269330791,-14.094782191428648,35.501646310384245
6.273232950761589,4.610039300015399,5.088599463832254,4.482215732434633,-15.748872520426946,34.73367903921297
6.319333343761743,4.452550574811129,5.1334216211566,4.829552522826763,-17.52710158367168,33.89955844029538
6.363858849509854,4.277279558974412,5.181717146384868,5.168548107229717,-19.407931753704506,33.02552811841931
6.406631645099598,4.083200241437367,5.233402627457165,5.4988033884139105,-21.368943874537127,32.14540209640218
6.447463647513971,3.8695108026919955,5.288390661341304,5.820257409377932,-23.38795507932022,31.30019851186919
6.486158755540891,3.6356312518987934,5.346593235435083,6.1332593944966245,-25.44424235511227,30.537495383556305
6.522515068059879,3.3811888283476708,5.40792582938005,6.4386343483321875,-27.519739281996895,29.91051601318814
6.556326956343356,3.105991435527702,5.472312172863371,6.7377395084640685,-29.600004914519005,29.476906173274443
6.587386870698633,2.809991386382512,5.539689567948012,7.032508570196813,-31.67466001327061,29.297052503660826
6.615486784562457,2.493244786249806,5.61001465364998,7.325479095233422,-33.73681031087266,29.431556805199246
6.640419232424955,2.1558766831410794,5.683269444602314,7.619794663285414,-35.78066141336764,29.937028912741855
6.661977999256366,1.798070069007403,5.759467391235169,7.9191649524128325,-37.79595719134647,30.85852768208751
6.6799586999464395,1.4201104970939382,5.838659040759297,8.227750229233708,-39.75685673431849,32.21550211648801
6.694159804917379,1.0225419297507532,5.920936543051634,8.549905250398588,-41.60117125128394,33.97561702387986
6.704385224214887,0.6065302172379139,6.00643559555562,8.889661420637387,-43.193442564136994,36.00722665610688
6.710450526387266,0.17459579159654393,6.0953322097619935,9.249733687198455,-44.26312087655001,37.99766265891496
6.712196484303232,-0.2680354171689562,6.187829546633978,9.629710313787605,-44.31178619067344,39.32714209256465
6.709516130131542,-0.7111532790756906,6.284126649771854,10.022981734713252,-42.50564347200924,38.916939592471536
6.702404597340785,-1.136209713795783,6.3843564671189865,10.412151130637968,-37.64253508303402,35.168588979505735
6.691042500202827,-1.512635064626123,6.488477978425366,10.763837020433025,-28.426639882362988,26.30797636307606
6.675916149556566,-1.7969014634497529,6.596116348629696,11.026916784063785,-14.352017733913314,11.546816910252558
6.657947134922068,-1.9404216407888861,6.706385516470334,11.14238495316631,3.0317456824708646,-7.235168624727398
6.6385429185141795,-1.9101041839641775,6.817809366001997,11.070033266919037,19.95058488052579,-25.274700033928738
6.6194418766745375,-1.7105983351589196,6.928509698671188,10.81728626657975,32.57413106660094,-37.815021125038164
6.602335893322948,-1.3848570244929101,7.036682561336985,10.439136055329367,39.52447652449591,-43.36659076421354
6.588487323078019,-0.989612259247951,7.141073921890278,10.005470147687232,41.86768520470171,-43.56388762846045
6.57859120048554,-0.5709354072009339,7.241128623367151,9.569831271402627,41.43012562738779,-40.88192732678065
6.57288184641353,-0.15663415092705607,7.336826936081176,9.161011998134821,39.64769924582812,-37.16552073207735
6.57131550490426,0.23984284153122515,7.428437056062525,8.789356790814049,37.35474729778052,-33.42248586065646
6.573713933319572,0.6133903145090304,7.516330623970665,8.455131932207484,34.95633553168772,-30.093958937820666
6.579847836464663,0.9629536698259076,7.60088194329274,8.154192342829278,32.61937851834372,-27.321544416770543
6.589477373162922,1.2891474550093447,7.682423866721033,7.880976898661572,30.394955498305823,-25.109637054144198
6.602368847713016,1.593097009992403,7.761233635707648,7.629880528120131,28.28349743421846,-23.40768305735732
6.6182998178129395,1.8759319843345876,7.837532440988849,7.395803697546557,26.26666546966113,-22.14790339938206
6.637059137656285,2.138598639031199,7.911490477964315,7.174324663552737,24.32209509772096,-21.261174833897332
6.658445124046597,2.3818195900084085,7.983233724599843,6.961712915213763,22.42979086130692,-20.682929179053925
6.682263319946681,2.6061174986214777,8.05285085375198,6.754883623423224,20.574555145290788,-20.354772869211715
6.708324494932897,2.8118630500743858,8.120399689986213,6.551335894731107,18.74656007432938,-20.224444936231652
6.736443125433641,2.9993286508176795,8.185913048933523,6.34909144536879,16.94106168655821,-20.24526616354732
6.766436411941817,3.1687392676832618,8.249403963387211,6.146638783733317,15.157728666910426,-20.375552894185756
6.798123804618649,3.320316554352366,8.310870351224544,5.942883254791459,13.399812182432372,-20.578159721797697
6.8313269701621735,3.4543146761766894,8.370299183772458,5.737101657573482,11.673270576809907,-20.820178489026997
6.86587011692394,3.5710473819447883,8.427670200348192,5.528899872683212,9.985911506529698,-21.072764726959345
6.901580590743388,3.670906497010085,8.482959199075024,5.318172225413618,8.346590457286212,-21.311044258041214
6.938289655713488,3.7543724015829474,8.53614092132916,5.105061782833206,6.764492393606379,-21.514052161713362
6.975833379729318,3.822017325519011,8.587191539157493,4.889921261216073,5.248515269532549,-21.664664005220764
7.014053552984508,3.8745024782143367,8.636090751769654,4.673274621163865,3.806767273410152,-21.74949024228868
7.052798577766651,3.9125701509484383,8.682823497981293,4.4557797187409784,2.4461830893952823,-21.758716287762805
7.091924279276135,3.937031981842391,8.727381295168703,4.238192555863351,1.1722581631099955,-21.685881445202476
7.131294599094559,3.948754563473491,8.769763220727336,4.0213337414113255,-0.011105679581713594,-21.527598733915987
7.170782144729294,3.9486435066776737,8.80997655814145,3.8060577540721656,-1.101654514581753,-21.283224328106563
7.210268579796071,3.937626961531856,8.848037135682171,3.5932255107911,-2.09875107039572,-20.95448971057682
7.249644849411389,3.916639450827899,8.883969390790082,3.383680613685332,-3.0032744556865216,-20.545111916851763
7.288811243919668,3.8866067062710337,8.917806196926936,3.178229494516814,-3.817468004260209,-20.06039771126902
7.327677310982379,3.8484320262284317,8.949588491872104,2.9776255174041237,-4.544751883299651,-19.506856580001504
7.366161631244664,3.8029845073954354,8.979364747046146,2.782556951604109,-5.1895157322157575,-18.89183545299973
7.404191476318618,3.751089350073278,9.007190316562188,2.5936385970741114,-5.756904604737828,-18.223185463597837
7.441702369819351,3.6935203040258995,9.033126702532929,2.411406742438133,-6.252609134326387,-17.508968161776373
7.47863757285961,3.630994212682636,9.05724076995731,2.2363170608203693,-6.682668361382226,-16.757205696004327
7.514947514986437,3.5641675290688135,9.079603940565514,2.068745003860326,-7.0532912371360235,-15.975676784930219
7.550589190277125,3.4936346166974532,9.100291390604117,1.908988236011024,-7.370700594245057,-15.171757964228547
7.585525536444099,3.4199276107550025,9.119381272964226,1.7572706563687386,-7.6410014426654405,-14.352307704665765
7.61972481255165,3.343517596328348,9.136953979527913,1.613747579322081,-7.8700738637778365,-13.523589590116845
7.6531599885149335,3.2648168576905694,9.153091455321134,1.4785116834209124,-8.06348955241368,-12.691229809829748
7.685808157091839,3.1841819621664325,9.167876572155343,1.351599385322615,-8.226450183098715,-11.860203715472124
7.717649976713503,3.101917460335445,9.181392566008569,1.2329973481678937,-8.363745220472515,-11.034846056233029
7.748669151316857,3.01828000813072,9.193722539490247,1.1226488876055634,-8.479726508270689,-10.218879658972432
7.778851951398164,2.933482743048013,9.204949028366302,1.020460091015839,-8.57829690389706,-9.41545768732556
7.808186778828644,2.8476997740090426,9.215153629276461,0.9263055141425834,-8.662910323044386,-8.627215120753501
7.836663776568734,2.7610706707785986,9.224416684417887,0.8400333629350485,-8.73658077088658,-7.8563256783033015
7.86427448327652,2.673704863069733,9.232817018047237,0.7614701061520155,-8.801898218880254,-7.104561020973769
7.891011531907218,2.58568588088093,9.240431719108757,0.6904244959422778,-8.861049502410244,-6.373349662674289
7.916868390716027,2.497075385856828,9.24733596406818,0.626690999315535,-8.915842735476579,-5.663833576684886
7.941839144574595,2.4079169585020623,9.253602874061334,0.5700526635486861,-8.967734042991228,-4.976920986824682
7.965918314159615,2.31823961807215,9.25930340069682,0.5202834536804393,-9.017855684483251,-4.313334273320331
7.989100710340336,2.2280610612273177,9.264506235233625,0.477150110947236,-9.067044876391869,-3.673652302012264
8.01138132095261,2.137390612463399,9.269277736343097,0.4404135879271133,-9.115872809757668,-3.0583468054992555
8.032755227077244,2.0462318843658225,9.273681872222369,0.40983011987212076,-9.164673505933145,-2.4678127117077215
8.053217545920901,1.954585149306491,9.27778017342109,0.3851519927550435,-9.213572257810037,-1.9023925353991498
8.072763397413967,1.8624494267283906,9.281631693348642,0.366128067401052,-9.26251347307244,-1.362395127009498
8.09138789168125,1.7698242919976663,9.285292974022653,0.35250411613095706,-9.311287775706475,-0.8481092154788314
8.109086134601228,1.6767114142406017,9.288818015183962,0.34402302397616874,-9.359558239887733,-0.3598122904712252
8.125853248743633,1.5831158318417242,9.292258245423723,0.3404249010714565,-9.406885634173408,0.10222455363093842
8.14168440706205,1.4890469754999902,9.295662494434437,0.3414471466077659,-9.452752551105894,0.53773514350466
8.15657487681705,1.3945194499889313,9.299076965900515,0.34682449804281246,-9.496586294502237,0.9464594382983018
8.17052007131694,1.299553587043909,9.302545210880943,0.3562890924257955,-9.53778039912476,1.3281467563384335
8.18351560718738,1.2041757830526614,9.3061081018052,0.3695705599891798,-9.575714668608777,1.6825603881397926
8.195557365017907,1.1084186363665736,9.309803807405093,0.38639616387057774,-9.609773638954692,2.009483032164899
8.206641551381573,1.0123208999770266,9.313667769043798,0.40649099419222673,-9.639363405985902,2.308722574085059
8.216764760381343,0.9159272659171676,9.31773267898572,0.4295782199330773,-9.663926793435015,2.5801178265530305
8.225924033040515,0.8192879979828174,9.32202846118505,0.4553793981986076,-9.682956879741736,2.8235439465212875
8.234116913020344,0.7224584291854,9.326582255167036,0.4836148376638205,-9.696008941310101,3.0389173421705995
8.241341497312199,0.6254983397722991,9.331418403543674,0.5140040110855265,-9.702710902786308,3.2261999631361533
8.247596480709921,0.528471230744436,9.33655844365453,0.5462660107168881,-9.702772406388515,3.3854029288476255
8.252881193017366,0.43144350668055087,9.342021103761699,0.5801200400053643,-9.695992619270934,3.5165894855984936
8.25719562808417,0.33448358048784155,9.347822304161753,0.6152859348613493,-9.682266889033139,3.619877291539205
8.260540463889049,0.23766091159751015,9.353975163510366,0.6514847077767414,-9.661592333668837,3.695440011577081
