th1 (rad),w1 (rad/s),th2 (rad),w2 (rad/s),a1 (rad/s^2),a2 (rad/s^2)
0.5141878915560534,1.9531984337975248,0.7633283538766702,-2.5646210711097774,-0.5096020084939127,-7.221832070993495
0.5337198758940286,1.9481024137125857,0.7376821431655725,-2.6368393918197124,-1.3021731442891389,-6.084750259677755
0.5532009000311544,1.9350806822696944,0.7113137492473753,-2.69768689441649,-2.1975737969543196,-4.817163144235364
0.5725517068538514,1.9131049443001513,0.6843368803032104,-2.7458585258588433,-3.1760354550280874,-3.4472280667486532
0.5916827562968529,1.8813445897498704,0.6568782950446219,-2.78033080652633,-4.208844526383865,-2.0150383752391248
0.6104962021943515,1.8392561444860318,0.6290749869793586,-2.800481190278721,-5.260526280777144,-0.5695187417463757
0.6288887636392119,1.7866508816782605,0.6010701750765713,-2.8061763776961848,-6.292545320342006,0.8367505630863834
0.6467552724559945,1.7237254284748404,0.5730084112996094,-2.797808872065321,-7.267830898722481,2.153805323342412
0.6639925267407429,1.6510471194876157,0.5450303225789562,-2.776270818831897,-8.155100346307256,3.340232921453929
0.6805029979356191,1.569496116024543,0.5172676143906373,-2.742868489617358,-8.931989062003135,4.36740116159656
0.6961979590958645,1.4801762254045117,0.4898389294944637,-2.699194478001392,-9.586398920013165,5.221181962156284
0.7109997213499096,1.38431223620438,0.4628469847144498,-2.6469826583798293,-10.11604944525367,5.901172968240998
0.7248428437119534,1.2831517417518434,0.4363771581306515,-2.5879709286974193,-10.526694009805553,6.4180822865568
0.7376743611294718,1.177884801653788,0.4104974488436773,-2.5237901058318513,-10.829679200010396,6.790233516687883
0.7494532091460097,1.069588009653684,0.38525954778535876,-2.4558877706649724,-11.039474888753212,7.040067833976029
0.7601490892425465,0.959193260766152,0.36070067007870904,-2.3854870923252123,-11.171594570682181,7.191222543870895
0.7697410218502081,0.8474773150593301,0.3368457991554569,-2.3135748668865035,-11.241088784826378,7.266431870124386
0.7782157950008014,0.7350664272110663,0.3137100504865919,-2.24091054818526,-11.261612454304643,7.286241686194045
0.785566459272912,0.6224503026680198,0.2913009450047393,-2.1680481313233195,-11.244965465113424,7.268390042532894
0.7917909622995922,0.5100006480168856,0.2696204636915061,-2.0953642308979905,-11.200972291472642,7.227660985128283
0.7968909687797611,0.39799092510215917,0.24866682138252622,-2.0230876210467077,-11.13757498607468,7.176033256360272
0.8008708780307826,0.28661517524141233,0.22843594517205915,-1.951327288483105,-11.06104087881041,7.122984861000081
0.8037370297831967,0.17600476645330823,0.2089226722872281,-1.8800974398731043,-10.976216547670257,7.075857750200253
0.8054970774477298,0.06624260097660566,0.19012169788849706,-1.8093388623711018,-10.886785488168638,7.040223592145856
0.8061595034574959,-0.04262525390508072,0.17202830926478604,-1.738936626449643,-10.79550605486895,7.020218612950672
0.805733250918445,-0.15058031445377024,0.1546389430002896,-1.6687344403201363,-10.704419025329283,7.018833413400691
0.8042274477739073,-0.25762450470706305,0.13795159859708825,-1.5985461061861295,-10.615021910567277,7.038154496888275
0.8016512027268367,-0.36377472381273585,0.12196613753522695,-1.5281645612172468,-10.528411399185892,7.079560122922305
0.7980134554887093,-0.4690588378045948,0.10668449192305449,-1.4573689599880237,-10.445397319024302,7.143875799496264
0.7933228671106634,-0.5735128109948378,0.09211080232317424,-1.385930201993061,-10.366592138472958,7.2314955304521
0.787587739000715,-0.6771787323795674,0.07825150030324363,-1.31361524668854,-10.292479915785032,7.342474694006569
0.7808159516769193,-0.7801035315374177,0.06511534783635822,-1.2401904997484743,-10.223468115870956,7.476599673466754
0.7730149163615452,-0.8823382126961273,0.052713442838873484,-1.1654245030138068,-10.159925068346956,7.63343839415879
0.7641915342345839,-0.9839374633795969,0.04105919780873542,-1.0890901190722189,-10.102205152850091,7.812374899878512
0.7543521596007879,-1.0849595149080977,0.030168296618013228,-1.0109663700734337,-10.050663118519811,8.012630096384889
0.7435025644517069,-1.1854661460932958,0.02005863291727889,-0.9308400691095848,-10.005658286368192,8.233269814144274
0.731647902990774,-1.2855227289569777,0.010750232226183043,-0.8485073709681421,-9.967548735922616,8.473200382764798
0.7187926757012042,-1.385198216316204,0.0022651585165016225,-0.7637753671404941,-9.936674918179374,8.731150933528465
0.7049406935380421,-1.4845649654979978,-0.0053725951549033184,-0.6764638578052095,-9.913331435861048,9.005640613824887
0.6900950438830621,-1.5836982798566082,-0.012137233732955412,-0.5864074516669606,-9.89772495702643,9.294927765536324
0.674258061084496,-1.6826755294268725,-0.01800130824962502,-0.4934581740115974,-9.889915349303156,9.596936850573243
0.6574313057902273,-1.781574682919904,-0.02293588998974099,-0.39748880550586496,-9.889736119167067,9.909157478270119
0.6396155589610283,-1.8804720441115745,-0.02691077804479964,-0.29839723072316376,-9.896689116400513,10.228508313009709
0.6208108385199126,-1.9794389352755797,-0.029894750352031277,-0.19611214759306667,-9.9098072668653,10.551156995666581
0.6010164491671568,-2.0785370079442327,-0.03185587182796194,-0.09060057763640085,-9.92747796173207,10.872285703054999
0.5802310790877144,-2.1778117875615535,-0.03276187760432595,0.018122279394149135,-9.947218944370068,11.185791016479053
0.5584529612120989,-2.277283977005254,-0.03258065481038446,0.12998018955893967,-9.965398636541565,11.483907155803974
0.5356801214420464,-2.3769379633706698,-0.031280852914795064,0.2448192611169794,-9.976894774410214,11.756744711255994
0.5119107418083396,-2.4767069111147717,-0.02883266030362527,0.36238670822953933,-9.97469051973254,11.991744965797379
0.4871436726971919,-2.576453816312097,-0.025208793221329878,0.48230415788751313,-9.949418215564801,12.173066071926675
0.4613791345340709,-2.675947998467745,-0.020385751642454746,0.6040348186067799,-9.888880932755281,12.280946334778955
0.4346196545493935,-2.7748368077952974,-0.014345403456386947,0.7268442819545694,-9.777614849864616,12.291137187178991
0.40687128647144055,-2.8726129562939438,-0.007076960636841253,0.8497556538263593,-9.596604850115968,12.17456897696092
0.3781451569085011,-2.9685790047951035,0.0014205959014223406,0.9715013435959685,-9.323331810956102,11.897506600863712
0.34845936686055007,-3.0618123229046645,0.011135609337382026,1.0904764096046056,-8.932404538365748,11.42255705010329
0.3178412436315034,-3.151136368288322,0.02204037343342808,1.2047019801056384,-8.397086771230617,10.710970541480053
0.2863298799486202,-3.2351072360006285,0.03408739323448447,1.311811685520439,-7.692019113856186,9.726658128280196
0.2539788075886139,-3.3120274271391903,0.04720551008968886,1.4090782668032409,-6.797280373987621,8.442122218030661
0.220858533317222,-3.3800002308790664,0.06129629275772127,1.4934994889835476,-5.703555351493358,6.845952856118475
0.18705853100843134,-3.437035784394,0.07623128764755674,1.5619590175447322,-4.4175665962633675,4.950668874585347
0.15268817316449135,-3.4812114503566334,0.09185087782300407,1.6114657062905857,-2.966243096982279,2.798704358903359
0.11787605866092501,-3.510873881326456,0.10796553488590993,1.6394527498796192,-1.3977193980453257,0.4638003278881601
0.08276731984766045,-3.524851075306909,0.12436006238470612,1.6440907531585007,0.222336597423537,-1.9543571565231865
0.04751880909459136,-3.522627709332674,0.14080096991629112,1.6245471815932688,1.819169013911474,-4.342406309780856
0.012292532001264615,-3.5044360191935593,0.15704644173222382,1.5811231184954602,3.3203093036368867,-6.589851435326446
-0.02275182819067098,-3.4712329261571906,0.1728576729171784,1.5152246041421957,4.666606652032261,-8.605179571657448
-0.05746415745224289,-3.424566859636868,0.18800991895860036,1.4291728084256212,5.819681286525944,-10.32689300759877
-0.09170982604861157,-3.3663700467716087,0.20230164704285658,1.3259038783496335,6.764121284051332,-11.72700130574241
-0.12537352651632766,-3.2987288339310954,0.2155606858263529,1.2086338652922095,7.5048394710033755,-12.80751323072096
-0.15836081485563863,-3.2236804392210616,0.227647024479275,1.080558732985,8.06147393837485,-13.59258683063655
-0.19059761924784924,-3.143065699837313,0.23845261180912503,0.9446328646786344,8.462026296822653,-14.119470954373512
-0.22202827624622237,-3.0584454368690865,0.24789894045591138,0.8034381551348992,8.737350974505917,-14.430567601439032
-0.25261273061491324,-2.9710719271240276,0.2559333220072604,0.6591324791205089,8.917237718011322,-14.567711933721247
-0.28232344988615354,-2.881899549943914,0.2625246467984655,0.5134553597832964,9.028127845561372,-14.56876292306041
-0.31114244538559266,-2.7916182714883004,0.2676592003962984,0.3677677305526923,9.092130899783113,-14.466054140938137
-0.33905862810047566,-2.7006969624904693,0.27133687770182535,0.22310718914331093,9.126908854967333,-14.286100988660685
-0.36606559772538033,-2.609427873940796,0.2735679495932585,0.08024617925670408,9.146049146189167,-14.050028839941643
-0.3921598764647883,-2.517967382478904,0.2743704113858255,-0.06025410914271234,9.159654813342017,-13.774333507921536
-0.4173395502895773,-2.426370834345484,0.2737678702943984,-0.19799744422192772,9.174983325971882,-13.471729913784788
-0.4416032586330322,-2.3346210010857655,0.27178789585217916,-0.3327147433597756,9.197043766113097,-13.151955387556717
-0.46494946864388986,-2.2426505634246348,0.2684607484185814,-0.4642342972353427,9.229113060641751,-12.822467061573732
-0.4873759742781362,-2.150359432818217,0.263818405446228,-0.5924589678510801,9.273161545490508,-12.489015803402545
-0.5088795686063184,-2.0576278173633122,0.2578938157677172,-0.7173491258851056,9.330193247373892,-12.156101599833637
-0.5294558467799516,-1.9643258848895733,0.25072032450886617,-0.8389101418834419,9.400512585954388,-11.827325187103432
-0.5490991056288473,-1.8703207590300295,0.24233122309003174,-0.9571833937544763,9.48393068275403,-11.505653580884028
-0.5678023132191476,-1.775481452202489,0.23275938915248698,-1.0722399295633165,9.57992357497536,-11.193616484722314
-0.5855571277411725,-1.6796822164527354,0.22203698985685383,-1.1841760944105397,9.68775278229947,-10.893448366273512
-0.6023539499056999,-1.5828046886297407,0.21019522891274844,-1.2931105780732748,9.806556603169431,-10.607188362018812
-0.6181819967919973,-1.4847391225980464,0.1972641231320157,-1.399182461693463,9.935418570391057,-10.336747618085205
-0.6330293880179777,-1.3853849368941358,0.18327229851508106,-1.502549937874315,10.073417802879534,-10.083951400157854
-0.6468832373869191,-1.2846507588653404,0.16824679913633792,-1.6033894518758935,10.219664567562234,-9.850561349215292
-0.6597297449755725,-1.1824541131897182,0.15221290461757897,-1.7018950653680465,10.37332317600575,-9.63828158309452
-0.6715542861074697,-1.0787208814296607,0.1351939539638985,-1.7982778811989917,10.533623325059342,-9.448750873688562
-0.6823414949217663,-0.9733846481790673,0.11721117515190857,-1.8927653899358774,10.69986008297224,-9.283521780385056
-0.692075341403557,-0.866386047349345,0.0982835212525498,-1.985600607739728,10.87138185408375,-9.144026303432831
-0.7007392018770504,-0.7576722288085075,0.07842751517515252,-2.077040870774056,11.04756475931764,-9.031526247564178
-0.7083159241651354,-0.6471965812153311,0.057657106467411956,-2.167356133249698,11.227770881508105,-8.947044969244994
-0.7147878899772887,-0.53491887240025,0.035983545134914974,-2.2568265829421477,11.41128668401076,-8.891275438106502
-0.7201370787012912,-0.42080600556014247,0.013415279305493497,-2.3457393373232125,11.597236569888816,-8.864457506315164
-0.7243451387568925,-0.30483363986125434,-0.010042114067738628,-2.434383912386364,11.784464986475975,-8.866214916082168
-0.7273934751555051,-0.1869889899964946,-0.03438595319160227,-2.523046061547186,11.971378734153037,-8.89533993040011
-0.7292633650554701,-0.06727520265496423,-0.05961641380707414,-2.611999460851187,12.155739362372623,-8.949510747739613
-0.7299361170820197,0.05428219096876201,-0.08573640841558601,-2.701494568328583,12.334394098881413,-9.02492455536195
-0.7293932951723321,0.17762613195757615,-0.11275135409887184,-2.791743813882203,12.502933405390998,-9.11582820804165
-0.7276170338527563,0.30265546601148613,-0.14066879223769388,-2.8829020959626193,12.655265354998761,-9.213930980525761
-0.7245904791926415,0.42920811956147376,-0.16949781319732007,-2.9750414057678767,12.78310391991765,-9.307692879899246
-0.7202983979970268,0.5570391587606502,-0.19924822725499886,-3.068118334566869,12.875383635400974,-9.381502781826208
-0.7147280064094202,0.68579299511466,-0.22992941060066754,-3.161933362385131,12.91764227164633,-9.41480063818968
-0.7078700764582736,0.8149694178311233,-0.26154874422451885,-3.256081368767028,12.891462657231473,-9.381266506526902
-0.6997203822799624,0.943884044403438,-0.2941095579121891,-3.349894033832297,12.774140499789517,-9.248304654970056
-0.6902815418359279,1.071625449401333,-0.3276084982505121,-3.4423770803819975,12.538846854396047,-8.977193928224443
-0.6795652873419146,1.1970139179452937,-0.36203226905433206,-3.5321490196642418,12.155665420108775,-8.524433858240565
-0.6675951481624617,1.3185705721463814,-0.3973537592509745,-3.6173933582466473,11.593957845441702,-7.844923237810721
-0.6544094424409979,1.4345101506007985,-0.43352769283344095,-3.6958425906247547,10.826450397869856,-6.897533085249382
-0.6400643409349899,1.542774654579497,-0.4704861187396885,-3.7648179214772486,9.835110181136058,-5.653193772329371
-0.6246365943891949,1.6411257563908574,-0.508134297954461,-3.8213498592005424,8.618182940497388,-4.104656731987642
-0.6082253368252863,1.7273075857958313,-0.5463477965464664,-3.862396426520419,7.196764699604937,-2.275703477336035
-0.590952260967328,1.7992752327918806,-0.5849717608116706,-3.8851534612937795,5.618385031316022,-0.2263224412786623
-0.5729595086394091,1.8554590831050408,-0.6238232954246083,-3.887416685706566,3.955029132940632,1.9497180692829936
-0.5544049178083588,1.8950093744344472,-0.662697462281674,-3.8679195050137363,2.294453901209366,4.136519047558713
-0.5354548240640143,1.9179539134465409,-0.7013766573318114,-3.826554314538149,0.7263462282728761,6.21482970021007
-0.5162752849295489,1.9252173757292697,-0.7396422004771929,-3.7644060175360483,-0.6725627915070269,8.08231988512065
-0.49702311117225617,1.9184917478141994,-0.7772862606525534,-3.6835828186848416,-1.8496250093653988,9.668752383640982
-0.4778381936941142,1.8999954977205453,-0.8141220888394017,-3.5868952948484316,-2.7806145530279673,10.941899694381659
-0.4588382387169087,1.8721893521902657,-0.8499910417878861,-3.477476297904615,-3.4672894990907572,11.904227836561917
-0.44011634519500603,1.837516457199358,-0.8847658047669322,-3.3584340195389957,-3.9305763122713664,12.5836444765875
-0.42174118062301247,1.7982106940766445,-0.9183501449623221,-3.232597574773121,-4.20245595206618,13.022523364195717
-0.403759073682246,1.7561861345559826,-0.9506761207100534,-3.1023723411311637,-4.31887593540544,13.268166790247058
-0.3861972123366862,1.7129973752019283,-0.981699844121365,-2.969690673228693,-4.314756343265272,13.36614025914614
-0.3690672385846669,1.6698498117692755,-1.0113967508536519,-2.8360292706372316,-4.221142224858905,13.356527306695618
-0.35236874046697414,1.6276383895206865,-1.0397570435600243,-2.7024639975702756,-4.0640315486045315,13.272446184274612
-0.3360923565717673,1.5869980740346412,-1.066781683535727,-2.5697395357275292,-3.864286673392098,13.140014440488038
-0.3202223758314209,1.5483552073007203,-1.0924790788930023,-2.438339391322649,-3.6381289037490268,12.979079745276259
-0.30473882375841366,1.5119739182632301,-1.1168624728062289,-2.308548593869886,-3.397870843005989,12.804250939441152
-0.28961908457578134,1.4779952098331703,-1.1399479587449277,-2.180506084475475,-3.152682158295764,12.625956736944874
-0.2748391324774496,1.4464683882502127,-1.1617530195896824,-2.054246517106026,-2.9092857375355705,12.451397383212898
-0.2603744485949475,1.417375530874857,-1.1822954847607425,-1.929732543273897,-2.6725442015956045,12.285339381609845
-0.24620069328619895,1.390650088858901,-1.2015928101934814,-1.8068791494577985,-2.4459312780336595,12.130749283980382
-0.23229419239760996,1.3661907760785645,-1.2196616016880595,-1.6855716566179946,-2.2318989035369827,11.989283771257021
-0.2186322846368243,1.3438717870431947,-1.2365173182542395,-1.5656788189054243,-2.032156862292747,11.861660506087519
-0.20519356676639236,1.3235502184202672,-1.2521741064432936,-1.447062213844549,-1.847882338005097,11.74793440741983
-0.1919580645821897,1.3050713950402162,-1.266644728581739,-1.3295828697703507,-1.6798749286666095,11.647701087255395
-0.17890735063178753,1.28827264575355,-1.2799405572794424,-1.2131058588977968,-1.5286700470733607,11.560245337856491
-0.16602462417425204,1.2729859452828165,-1.2920716158684205,-1.0975034055192319,-1.3946209901617284,11.48464878901823
-0.15329476472142387,1.2590397353811993,-1.3030466499236129,-0.9826569176290496,-1.2779576371535775,11.419867586489842
-0.14070436736761188,1.2462601590096636,-1.3128732190999033,-0.8684582417641512,-1.1788278278398432,11.36478828263712
-0.12824176577751525,1.2344718807312651,-1.3215578015175449,-0.75481035893778,-1.0973259667862068,11.318268046390108
-0.1158970469702026,1.2234986210634031,-1.3291059051069227,-0.6416276784738789,-1.033512242302054,11.279163705644358
-0.10366206075956858,1.2131634986403825,-1.3355221818916616,-0.5288360414174353,-0.9874249755099577,11.246352935333627
-0.09153042577316475,1.2032892488852829,-1.340810542305836,-0.4163725120640991,-0.9590879635207458,11.218750010226236
-0.07949753328431192,1.1936983692500753,-1.344974267426477,-0.3041850119618367,-0.94851419954409,11.195317879467883
-0.06756054959181117,1.1842132272546344,-1.3480161175460954,-0.19223183316715792,-0.9557069999410979,11.175077831512976
-0.05571841731926482,1.1746561572552234,-1.349938435877767,-0.08048105485202815,-0.9806593112338586,11.157117658342521
-0.043971855746712585,1.1648495641428849,-1.3507432464262874,0.031090121731397066,-1.0233517841409998,11.140598962828781
-0.032323360105283735,1.154616046301475,-1.3504323452089735,0.14249611135968487,-1.0837500681554837,11.124764057564205
-0.020777199642268984,1.14377854561992,-1.3490073840953767,0.25374375193532694,-1.1618016850878254,11.108942758893019
-0.009339414186069784,1.132160528769042,-1.3464699465760235,0.36483317952425715,-1.2574327729915593,11.092559272766087
0.0019821911016206367,1.1195862010391264,-1.342821614780781,0.475758772251918,-1.3705449452443315,11.07513928962477
0.013178053112011902,1.105880751586683,-1.3380640270582618,0.5865101651481657,-1.5010124775055944,11.056317346816481
0.024236860627878734,1.090870626811627,-1.33219892540678,0.6970733386163305,-1.6486800134661628,11.035844474095448
0.035145566895995003,1.0743838266769654,-1.3252281920206168,0.8074317833572849,-1.8133609654384533,11.013596107094973
0.04588940516276466,1.056250217022581,-1.3171538741870439,0.9175677444282346,-1.9948367753487386,10.989580232874317
0.056451907332990464,1.0363018492690936,-1.3079781967427615,1.0274635467569777,-2.192857193557692,10.963945719109692
0.0668149258256814,1.0143732773335168,-1.2977035612751917,1.1371030039480745,-2.4071417254979477,10.936990773095514
0.07695865859901656,0.9903018600785373,-1.286332531235711,1.2464729116790296,-2.6373823879700145,10.909171477640642
0.08686167719980192,0.9639280361988372,-1.2738678021189207,1.355564626455436,-2.8832479068152876,10.881110357500535
0.0965009575617903,0.9350955571306843,-1.2603121558543664,1.4643757300304414,-3.1443894743638383,10.853604941431373
0.10585191313309714,0.9036516623870459,-1.245668398554062,1.5729117794447551,-3.4204481672416525,10.827636300261917
0.1148884297569676,0.8694471807146293,-1.2299392807596143,1.6811881424473742,-3.7110641013074432,10.804377558994375
0.12358290156411389,0.832336539701555,-1.2131273993351406,1.789231918037318,-4.015887368741458,10.785202398433421
0.13190626696112945,0.7921776660141404,-1.1952350801547673,1.897083942021652,-4.334590759967091,10.771693575428792
