th1 (rad),w1 (rad/s),th2 (rad),w2 (rad/s)
3.6383974887864214,-0.11267312442864325,1.308306569820593,-1.3972732662926795
3.637270757542135,-0.10339031164566471,1.294333837157666,-1.4854340018543404
3.636236854425678,-0.09566309341270146,1.2794794971391226,-1.5742450177618756
3.635280223491551,-0.08955247538591166,1.263737046961504,-1.6637279694570597
3.634384698737692,-0.08511465216074715,1.2470997672669333,-1.7539025324402813
3.6335335522160843,-0.08239972517624661,1.2295607419425305,-1.8447849115173665
3.632709554964322,-0.08145017487344004,1.211112892827357,-1.9363860194135891
3.6318950532155876,-0.08229904539211079,1.191749032633221,-2.0287092760276844
3.6310720627616666,-0.08496779703042184,1.1714619398729442,-2.1217479760164317
3.6302223847913626,-0.08946377991648322,1.15024446011278,-2.2154821702090675
3.629327746992198,-0.0957772826689361,1.1280896384106893,-2.3098750065188964
3.6283699741655084,-0.10387811336156146,1.1049908883455004,-2.4048684798682713
3.627331193031893,-0.11371167830531913,1.0809422035468177,-2.5003785499199838
3.6261940762488396,-0.12519453885981544,1.055938418047618,-2.596289602348646
3.6249421308602416,-0.13820944992876222,1.0299755220241313,-2.6924482567417125
3.623560036360954,-0.1525999185834527,1.0030510394567143,-2.7886565652188735
3.6220340371751196,-0.1681643702091075,0.9751644738045255,-2.884664704041428
3.6203523934730284,-0.18465007539924733,0.9463178267641112,-2.9801633393494114
3.618505892719036,-0.20174707561678085,0.9165161933706172,-3.0747759505370937
3.616488421962868,-0.21908245000653945,0.8857684338652463,-3.168051521796467
3.614297597462803,-0.23621538762379393,0.8540879186472816,-3.259458162027091
3.611935443586565,-0.2526336624730433,0.8214933370270107,-3.3483783786014953
3.609409106961835,-0.26775224091586786,0.7880095532409958,-3.4341068971385034
3.606731584552676,-0.2809148624211605,0.7536684842696108,-3.515852063912386
3.6039224359284643,-0.2913994970685571,0.7185099636304869,-3.5927419557013076
3.6010084409577785,-0.29842856080211405,0.6825825440734739,-3.663836309824615
3.598024155349757,-0.3011846222353143,0.6459441809752277,-3.7281452252084852
3.595012309127404,-0.2988320262440835,0.6086627287231428,-3.784655227036732
3.5920239888649634,-0.2905443679321334,0.5708161764527755,-3.8323627034517442
3.589118545185642,-0.27553708340572136,0.5324925494182581,-3.8703139182984354
3.5863631743515847,-0.25310363200835023,0.49378941023527373,-3.8976498368631836
3.583832138031501,-0.22265293009493745,0.4548129118666419,-3.913652992434741
3.5816056087305514,-0.18374500666006993,0.4156763819422945,-3.9177927481386967
3.579768158663951,-0.1361214562091478,0.3764984544609075,-3.9097647787352265
3.5784069441018596,-0.07972731584497145,0.33740080667355526,-3.889520599790814
3.57760967094341,-0.014721575532290032,0.29850560067564713,-3.8572836165016606
3.577462455188087,0.058525382339233045,0.2599327645106305,-3.813549430618451
3.578047709011479,0.13944767451511092,0.221797270204446,-3.759069860636143
3.5794421857566303,0.22731184845821364,0.18420657159808457,-3.694822004256582
3.5817153042412126,0.32125419079249723,0.14725835155551875,-3.6219653579800166
3.584927846149138,0.42032380684081705,0.11103869797571858,-3.5417912017271895
3.589131084217546,0.5235274988885682,0.07562078595844668,-3.4556689721093
3.5943663592064317,0.62987269185635,0.04106409623735368,-3.364994161585508
3.6006650861249954,0.738405351990077,0.007414154621498602,-3.2711415156452537
3.608049139644896,0.8482408271342572,-0.025297260534953937,-3.1754261754446316
3.6165315479162383,0.9585865970788351,-0.057051522289400254,-3.0790741747315846
3.6261174138870267,1.0687568822148896,-0.0878422640367161,-2.9832025589053344
3.6368049827091755,1.17817980314021,-0.11767428962576945,-2.8888084914393684
3.6485867807405774,1.2863982661246107,-0.14656237454016313,-2.796766109932191
3.6614507634018234,1.3930659794343496,-0.17453003563948505,-2.7078295850351277
3.675381423196167,1.4979400297405245,-0.2016083314898363,-2.622640770934193
3.690360823493572,1.600871327995561,-0.22783473919917824,-2.541739946749916
3.706369536773528,1.7017940313424988,-0.2532521386666774,-2.4655783642967384
3.723387477086953,1.8007148124793342,-0.2779079223096448,-2.394531580208472
3.741394625211746,1.897702616800819,-0.3018532381117295,-2.328912816444687
3.7603716513797543,1.9928793429282379,-0.3251423662761764,-2.268985835534032
3.7803004448090367,2.086411714757366,-0.3478322246315167,-2.2149770217890636
3.8011645619566106,2.178504485528891,-0.3699819948494073,-2.167086523065946
3.8229496068118993,2.269395024165201,-0.3916528600800668,-2.125498431597062
3.845643557053551,2.359349276110036,-0.4129078443960374,-2.0903900725505995
3.8692370498146516,2.4486590591702235,-0.4338117451215434,-2.0619405321955004
3.8937236404063538,2.5376406436310917,-0.4544311504434984,-2.04033860087917
3.9191000468426647,2.626634570240528,-0.4748345364522901,-2.025790335825516
3.94536639254507,2.716006675594983,-0.4950924398105453,-2.0185264704304258
3.97252645930102,2.806150319088585,-0.5152777045148496,-2.0188099145981933
4.000587962491906,2.8974898368264532,-0.5354658036608315,-2.026943607967304
4.029562860860171,2.9904852842491443,-0.5557352397405045,-2.0432790067224302
4.059467713702662,3.0856385693237347,-0.5761680298077289,-2.068225505832707
4.090324099395899,3.183501120226646,-0.596850284866056,-2.1022611208322455
4.122159110598166,3.2846832721975714,-0.6178728960743785,-2.1459447724054943
4.155005943320142,3.389865591176269,-0.6393323437984334,-2.199930523383181
4.188904599231905,3.499812364072866,-0.6613316490322652,-2.2649840918627917
4.223902722872634,3.6153874521391467,-0.683981489950893,-2.342001868815759
4.260056597394025,3.737572577502702,-0.7074015086390506,-2.4320324339316017
4.297432323169052,3.8674878045075376,-0.7317218329783666,-2.5363000600763814
4.336107201214127,4.0064133214239925,-0.7570848335791304,-2.656228685750662
4.376171334428367,4.1558103180645745,-0.783647120436637,-2.7934628777548745
4.417729437609013,4.317336228890711,-0.8115817492141857,-2.9498786025638464
4.460902799897919,4.492844850829666,-0.8410805352398242,-3.127569730511659
4.505831248406216,4.684353046358443,-0.8723562325449408,-3.328783563527146
4.5526747788698,4.893939851924396,-0.9056440681802123,-3.555756006821648
4.601614177389044,5.123516133624451,-0.9412016282484288,-3.8103577173682437
4.652849338725289,5.374357830853695,-0.9793052054221112,-4.093398832785991
4.706592917033826,5.646232084167347,-1.020239193749971,-4.403350293806944
4.7630552378755,5.935886263165062,-1.0642726966880405,-4.734157572960821
4.822414100507151,6.234717033161717,-1.1116142724176488,-5.071892886109285
4.884761270838768,6.525870294999092,-1.1623332012787415,-5.390611986897431
4.950019973788759,6.782311318822453,-1.2162393211477158,-5.649614036110908
5.017843086976984,6.969511200666905,-1.2727354615088249,-5.79729446515119
5.087538198983653,7.056681480480835,-1.3307084061603367,-5.787192236790408
5.158105013788461,7.033608402739466,-1.3885803285282408,-5.602088358702008
5.228441097815856,6.919032796935876,-1.444601212115261,-5.266235318298539
5.297631425785215,6.750266284476902,-1.4972635652982462,-4.830967430521546
5.3651340886299845,6.564218349652331,-1.5455732396034616,-4.347892580589484
5.430776272126508,6.386201000238159,-1.5890521654093563,-3.852828568126968
5.494638282128889,6.229315841747167,-1.627580451090626,-3.3646495976882136
5.556931440546361,6.0983360896193854,-1.661226947067508,-2.8905855721459055
5.617914801442555,5.99349097433994,-1.690132802788967,-2.4315027110892067
5.677849711185954,5.912894127317505,-1.714447829899859,-1.985348295599624
5.736978652459129,5.853834880727193,-1.7343013128558553,-1.5490305094516974
5.795517001266401,5.813383496045309,-1.7497916179503723,-1.1193473620003598
5.853650836226854,5.788636238795966,-1.760985091570376,-0.6934132911602686
5.9115371986148135,5.7767863834588296,-1.7679192244819786,-0.26884018158173767
5.9693050624494015,5.7751176748485795,-1.770607626297796,0.1561949288371423
6.027056239197887,5.780968189736023,-1.7690456770094245,0.5829315691583907
6.084865921095248,5.791688029682652,-1.7632163613178407,1.0120282159583234
6.142782801392074,5.80460235023931,-1.7530960791582575,1.4435740385059783
6.200828824894467,5.816985513606765,-1.7386603387731978,1.877107189367852
6.258998680030535,5.826049351806864,-1.7198892668795194,2.3116407168529274
6.317259173548604,5.828947005078029,-1.6967728597109901,2.7456986607468656
6.375548643599384,5.82279276283947,-1.6693158731035214,3.1773650308262256
6.433776571227779,5.804697426570887,-1.6375422227952592,3.6043477078033557
6.491823545493488,5.771817809618823,-1.6014987457172256,4.02405817654385
6.549541723589676,5.7214180817327716,-1.561258163951787,4.433706641080181
6.606755904407003,5.650939802379997,-1.5169210975409853,4.830410677018755
6.663265302430803,5.5580767229768435,-1.4686169907707978,5.211314305769279
6.718846069660572,5.44084981659158,-1.416503847713105,5.573713330474069
6.773254567826488,5.297677538661283,-1.3607667144083642,5.915182002876164
6.8262313432131005,5.127436053424205,-1.3016148943796024,6.233695600206074
6.877505703747342,4.929504115943603,-1.2392779383775416,6.527743281707075
6.926800744906778,4.7037875518339085,-1.174000505560471,6.796425697862838
6.973838620425117,4.450718929251197,-1.1060362485818427,7.039532326503115
7.018345809717629,4.171229168111387,-1.0356409253168115,7.257594531062032
7.0600581013987425,3.866689512851178,-0.9630649800061912,7.451911983974036
7.098724996527254,3.538824415414337,-0.8885458601664509,7.624552389750393
7.134113240681398,3.189598188110842,-0.8123003362689469,7.7783272445494225
7.166009222562506,2.8210804175057183,-0.7345170638234527,7.916749383589788
7.194220026737563,2.4352966678244115,-0.6553495699875549,8.043980876336436
7.218572993415807,2.0340716259879885,-0.5749097612241906,8.164781982115205
7.238913709675687,1.6188714654611576,-0.49326194140303853,8.284472973364906
7.255102424330299,1.1906511118928984,-0.4104172116693895,8.408920309433801
7.267008935449228,0.7497110657566395,-0.3263280085750515,8.544556392382972
7.2745060461067945,0.2955690355234766,-0.24088244465122177,8.698436780944933
7.277461736462029,-0.1731431521554777,-0.15389807684177242,8.878327286940639
7.275730304940474,-0.65873107653884,-0.06511480397236603,9.09278858910045
7.269142994175086,-1.1643724182338897,0.025813081918638472,9.351171256192037
7.2574992699927465,-1.6937810559073676,0.11932479448055884,9.663312994562455
7.240561459433673,-2.2502559179349255,0.2159579244261834,10.038468185884971
7.218058900254324,-2.8343866562155338,0.3163426062850331,10.482468171819281
7.189715033692169,-3.439035533617554,0.4211672880032259,10.99119014190869
7.155324678355993,-4.0396079414707255,0.5310791894223128,11.537511262038288
7.114928598941286,-4.579226455257886,0.6464543020426957,12.050997508379206
7.069136334388707,-4.958712767044655,0.7669642771264877,12.403588790106701
7.019549206718261,-5.063226194402611,0.8910001650275547,12.444744358963415
6.968916944774235,-4.847132028966807,1.0154476086171889,12.115528875547234
6.920445624484567,-4.392854370064001,1.1366028973726612,11.526379183754202
6.876517080783927,-3.840718096418251,1.2518666892102033,10.860349347545776
6.838109899819744,-3.289829940469786,1.3604701826856611,10.241328843939407
6.8052116004150465,-2.780909453293896,1.4628834711250551,9.714893894764895
6.777402505882107,-2.321662770938415,1.560032410072704,9.284432525756989
6.7541858781727235,-1.9073387662191985,1.652876735330274,8.938818584910328
6.735112490510532,-1.53011298719579,1.7422649211793773,8.664445926272853
6.719811360638574,-1.1824150223411496,1.8289093804421057,8.44914384505409
6.707987210415163,-0.8578387397810125,1.9134008188926466,8.282997536742364
6.699408823017353,-0.55122256881903,1.9962307942600703,8.158184300201382
6.693896597329163,-0.2584918140178399,2.077812637262084,8.068578024899486
6.691311679188984,0.023534900598666864,2.158498417511079,8.00936024002693
6.691547028194971,0.2973141701169136,2.2385920199113483,7.9766978276643155
6.69452016989614,0.564708925187787,2.3183589981879913,7.967490682909983
6.700167259148017,0.8270849447941573,2.3980339050170913,7.979177493668453
6.708438108595959,1.085379289307833,2.4778256799537757,8.009586190617943
6.719291901489037,1.3401471747390379,2.557921541859955,8.056817762562794
6.732693373236428,1.5915928350921025,2.638489719485583,8.119154845539965
6.748609301587349,1.8395888747574012,2.7196812679409827,8.194988835825026
6.767005190334923,2.0836877390398225,2.801631156299233,8.282761058227422
6.787842067725322,2.3231282450640736,2.884458766881507,8.380914778097473
6.811073350175962,2.5568395687087557,2.9682679146624817,8.487855667024036
6.83664174586305,2.7834446232147934,3.053146471332722,8.60191881351982
6.864476192095197,3.0012643625464115,3.1391656594679205,8.721340612808635
6.8944888357206615,3.208324207987546,3.226379065596007,8.844233997582732
6.926572077800537,3.402363590046519,3.314821405571834,8.968565645550528
6.960595713701002,3.5808496300762203,3.4045070620273394,9.09213422530924
6.9964042100017645,3.7409964013160284,3.4954284042804318,9.212549655079545
7.033814174014925,3.879792141328736,3.587553900831227,9.327214967672061
7.072612095428212,3.994038282479121,3.6808260505079478,9.433314812660004
7.112552478253003,4.080406070496474,3.775159198634548,9.527817760768142
7.1533565389579685,4.135518379236458,3.8704373762422293,9.607502898536085
7.194711722750333,4.15606522750668,3.96651240522759,9.669023705270712
7.2362723750254,4.138960231184487,4.063202642280297,9.709022395276891
7.277661977337244,4.0815404732508,4.160292866233066,9.72430407880316
7.318477382069752,3.981803239355052,4.257535907021097,9.712070953775662
7.358295414463303,3.838660252304919,4.354656616558854,9.670202357262484
7.396682016986352,3.6521759840996064,4.451358640131479,9.597549246010196
7.433203776827348,3.42374595930164,4.5473341325915815,9.494196479743897
7.467441236420364,3.1561692358920483,4.64227609738902,9.36163959042018
7.4990029287792845,2.8535804818395354,4.735892493293222,9.202829884038277
7.52753873359768,2.5212310171034287,4.827920792133605,9.022063825896376
7.552751043768715,2.165139086511586,4.918141430392568,8.824724702592288
7.57440243463383,1.7916577615762166,5.006388677418491,8.616916652590103
7.592319012249592,1.4070247568081038,5.092557843944393,8.405052725063305
7.606389259817673,1.0169572702760035,5.176608371195026,8.195463258598137
7.616558832520433,0.6263385675929318,5.258563003781007,7.9940789891973605
7.6228222181963625,0.23901842152871994,5.338503793672981,7.8062211364385234
7.62521240241165,-0.14227491416864418,5.4165660050373665,7.636506713214435
7.623789653269964,-0.5159315610410069,5.492931072169511,7.488858326915806
7.618630337659554,-0.8813953065625801,5.567819655438669,7.366597089290193
7.609816384593929,-1.2390683133594336,5.641485626331571,7.2725947859877795
7.597425701460335,-1.5902124890244673,5.714211574191449,7.20946497559697
7.58152357657009,-1.9368688657203037,5.786306223947419,7.179779467392661
7.562154887912887,-2.2818105348259503,5.858104018621345,7.1863044041701425
7.539336782564627,-2.628540128770118,5.929967062663047,7.232257429830095
7.5130513812769255,-2.9813395867125885,6.002289636961348,7.3215930466471395
7.4832379854098,-3.345376739841165,6.075505567427819,7.459325669466579
7.449784218011389,-3.7268666496034504,6.150098824122485,7.651895059284926
7.412515551515354,-4.133267115885789,6.226617774715334,7.9075559633907115
7.371182880356496,-4.573436248051761,6.3056933343492405,8.236704576011935
7.325448517875978,-5.057542995943351,6.38806038010936,8.651866620016529
7.274873087916545,-5.596171605244687,6.474579046309525,9.166587869325388
7.218911371864098,-6.197213409068126,6.5662449250027795,9.791288181088401
7.1569392377734165,-6.8573157491015255,6.664157806813663,10.521585993490238
7.088366080282401,-7.541969270496049,6.7693736667485656,11.310795564492153
7.012946387577441,-8.150541758844838,6.882481622393487,12.02126073114407
6.9314409699889925,-8.494277940706523,7.002694229704928,12.39322147265652
6.8464981905819275,-8.38815632191085,7.126626444431493,12.171417921866997
6.762616627362819,-7.865860486150571,7.248340623650163,11.401747719130869
6.683958022501313,-7.173563122188712,7.362358100841472,10.420106421102657
6.612222391279426,-6.510912967127433,7.466559165052498,9.494851797729474
6.5471132616081515,-5.946074892712172,7.5615076830297925,8.71348214402796
6.48765251268103,-5.480254308237316,7.648642504470072,8.073400370290763
6.4328499695986565,-5.096813960044375,7.7293765081729795,7.549220578834263
6.381881829998213,-4.778412111228745,7.804868713961322,7.115677561533115
6.334097708885926,-4.510926345577749,7.876025489576653,6.752560113400906
6.288988445430149,-4.283579012047188,7.943551090710662,6.444621868145478
6.246152655309677,-4.08825902891729,8.007997309392117,6.1805097156263065
6.205270065020504,-3.918832082743787,8.06980240654838,5.951744276912489
6.166081744193066,-3.7705984286588414,8.129319849317504,5.751941140674018
6.128375759906478,-3.6398957464286514,8.186839260724245,5.576253397094867
6.091976802442192,-3.5238134735735605,8.242601794695194,5.4209805948999366
6.056738667706456,-3.419987008878609,8.296811600644194,5.283295278410853
6.02253879761767,-3.326448329276076,8.349644553428302,5.161050516809097
5.989274314324909,-3.2415172248527586,8.401255058596393,5.052641961655176
5.9568591420763815,-3.1637233774030533,8.451781478212943,4.956904823870587
5.925221908302351,-3.09175401594061,8.501350526451649,4.873030392436676
5.8943043681429454,-3.0244250573608236,8.550080830376016,4.800489390826532
5.864060117569338,-2.960675359127737,8.598085724284282,4.738951843477821
5.83445336397806,-2.899583526206788,8.64547524271906,4.688196603000769
5.805457528715992,-2.840404120149261,8.692357208749067,4.648009498853633
5.777053487514499,-2.782615156711358,8.738837303737604,4.618077491901551
5.749227335947386,-2.725962830504314,8.78501807865662,4.597895544078486
5.721967707642342,-2.670485530542264,8.830997034097404,4.586709002630088
5.69526285233692,-2.616501130867062,8.876864124123705,4.583512063187428
5.6690978410282495,-2.5645510695574516,8.922699244755579,4.587109899130066
5.643452330332675,-2.515309265278248,8.96857034374688,4.596232090437825
5.618299237679892,-2.4694767652676313,9.014532664651258,4.609667494028706
5.593604470027215,-2.427687453307214,9.060629339591545,4.626385023235619
5.569327595494143,-2.390444253718716,9.1068931898239,4.645613478306306
5.545423152956956,-2.3580931014894606,9.153349324606964,4.666870774969784
5.5218422219420615,-2.330830132403564,9.200018032356661,4.689949360435961
5.4985339206180255,-2.3087307541195794,9.24691752596102,4.714873854724399
5.47544661307683,-2.2917882747025033,9.294066264508265,4.741848070390432
5.452528730329805,-2.279952598015636,9.341484745212169,4.771204444901882
5.429729204349648,-2.273163548968618,9.389196789661188,4.803363230440971
5.406997568859962,-2.271376889172315,9.437230421965598,4.838803980728993
5.384283799968239,-2.274583351426579,9.485618461772887,4.878048845422958
5.361537966453973,-2.2828221295780806,9.534398950227116,4.9216557904133635
5.338709745158193,-2.296190571672517,9.583615508131249,4.970219575810702
5.3157478394414674,-2.314851706865319,9.633317703889356,5.024378618974487
5.292599322372814,-2.339040950530226,9.6835614900791,5.084826380374869
5.269208912867511,-2.3690730215154545,9.734409753882849,5.152326427536591
5.245518182652357,-2.4053498275572225,9.785933018158214,5.227730758298136
5.221464684376785,-2.448369829670073,9.838210325741196,5.312001255138235
5.196980986080084,-2.4987391447425353,9.891330338292578,5.406234262672189
5.171993594632659,-2.5571843099518787,9.9453926809193,5.511688166131285
5.146421751533141,-2.624566078639253,10.000509562580612,5.629813360807284
5.120176090746749,-2.701892609726039,10.056807696188685,5.7622828592730615
5.093157164649488,-2.7903285298032143,10.114430524781415,5.911019439763659
