th1 (rad),w1 (rad/s),th2 (rad),w2 (rad/s)
0.3890822404717042,-0.8336118686192444,1.9513674001721093,-0.034427195976997185
0.38074612178551176,-0.8703657612580277,1.9510231282123394,-0.13205157782539712
0.37204246417293146,-0.9066710815186714,1.9497026124340855,-0.2306089759637716
0.36297575335774473,-0.9423715607917866,1.9473965226744478,-0.33012318320205136
0.35355203774982685,-0.977306881304413,1.9440952908424274,-0.43061115176205933
0.3437789689367827,-1.0113125106651335,1.9397891793248068,-0.5320827131981959
0.33366584383013137,-1.044219580694395,1.9344683521928248,-0.6345403445407619
0.3232236480231874,-1.0758548171752575,1.9281229487474172,-0.7379789934292619
0.31246509985143484,-1.1060405270904994,1.9207431588131245,-0.8423859757391222
0.3014046945805298,-1.1345946496611043,1.9123192990557334,-0.9477409598702478
0.2900587480839188,-1.1613308770357105,1.902841889457031,-1.0540160524278335
0.2784454393135617,-1.1860588497663793,1.8923017289327526,-1.1611760004510303
0.2665848508158979,-1.2085844312085372,1.8806899689282424,-1.269178525598847
0.2544990065038125,-1.2287100636685537,1.867998183672254,-1.3779748057511718
0.242211905867127,-1.2462352074601464,1.8542184356147422,-1.4875101192947278
0.2297495537925255,-1.260956861993997,1.8393433344217949,-1.5977246669128284
0.21713998517258554,-1.2726701655937105,1.8233660877526665,-1.7085545849653783
0.20441328351664842,-1.2811690678946634,1.8062805419030128,-1.8199331635240872
0.19160159283770178,-1.2862470654413933,1.788081210267772,-1.9317922808243202
0.17873912218328786,-1.2876979874695196,1.7687632874595287,-2.0440640643347825
0.16586214230859267,-1.2853168148727017,1.748322646816181,-2.1566827868769574
0.15300897415986564,-1.278900511066611,1.7267558189474115,-2.269587004321182
0.14021996904919953,-1.2682488389451532,1.7040599489041997,-2.3827219394470873
0.12753748065974801,-1.2531651334777967,1.6802327295097288,-2.4960421147139042
0.11500582932497005,-1.2334569948443843,1.6552723083625898,-2.6095142351000424
0.10267125937652621,-1.2089368624948242,1.6291771660115892,-2.7231203210238655
0.09058189075157796,-1.1794224263328945,1.6019459628013506,-2.8368610908443244
0.07878766648824902,-1.1447368275646257,1.5735773518929073,-2.950759592752403
0.06734029821260276,-1.1047085988703613,1.5440697559653833,-3.0648650871609373
0.056293212223899144,-1.0591712917596947,1.513421105093774,-3.179257183063907
0.0457014993063022,-1.0079627386423013,1.481628533263135,-3.294050235206469
0.035621871919879186,-0.9509238988335421,1.4486880309110703,-3.4093980129787487
0.026112632931543762,-0.8878972421964652,1.4145940507812829,-3.5254986560130996
0.017233660509579113,-0.818724632601821,1.3793390642211518,-3.6425999341743966
0.009046414183560902,-0.7432446877595174,1.3429130648794079,-3.7610048286048543
0.0016139673059657285,-0.6612896152813379,1.3053030165933592,-3.881077441697706
-0.004998928846847651,-0.5726815620005821,1.2664922421763822,-4.003249220685735
-0.010725744466853471,-0.47722857258777374,1.226459749969525,-4.1280254310950495
-0.015498030192731209,-0.37472034731091464,1.1851794956585744,-4.255991725020054
-0.019245233665840356,-0.26492413833691375,1.142619578408374,-4.387820486503264
-0.021894475049209494,-0.14758136302428473,1.0987413735433413,-4.5242763561638855
-0.02337028867945234,-0.022405895402537818,1.0534986099817025,-4.666219865350148
-0.02359434763347772,0.11091439022175412,1.0068364113282011,-4.814607327534615
-0.02248520373126018,0.2527102710993966,0.958690338052855,-4.970483852975892
-0.019958101020266215,0.40331391773601655,0.908985499523096,-5.134964279266337
-0.01592496184290605,0.5630251829178705,0.8576358567304326,-5.309193507450429
-0.010294710013727344,0.7320511501103705,0.8045439216559284,-5.49427258985009
-0.0029741985126236397,0.910403104928598,0.7496011957574275,-5.691129197981508
0.00612983253666234,1.0977274170400437,0.6926899037776124,-5.900300261078443
0.017107106707062777,1.293037609412922,0.633686901166828,-6.121581256061546
0.030037482801191995,1.4943075755379716,0.5724710886062125,-6.353485307074228
0.04498055855657171,1.697890869688118,0.5089362355354703,-6.592459885186066
0.06195946725345289,1.8977724871498145,0.44301163668360966,-6.831862618484677
0.08093719212495104,2.084781231334409,0.3746930104987629,-7.060860886456975
0.10178500443829513,2.2461396293702953,0.30408440163419315,-7.263758621865624
0.12424640073199808,2.3660685745103107,0.2314468154155369,-7.4207218287403105
0.14790708647710119,2.4282920171086197,0.1572395971281338,-7.51105779985393
0.17219000664818737,2.420569097889519,0.08212901912959449,-7.519231570871721
0.19639569762708256,2.3395498113309157,0.00693670342087728,-7.441310551752244
0.21979119574039171,2.192770253057792,-0.06747640209664517,-7.287529120996599
0.24171889827096962,1.9959618681983187,-0.14035169330661115,-7.078554624136164
0.2616785169529528,1.7674861388171927,-0.2111372395479728,-6.8379903311693795
0.2793533783411247,1.5234956841564553,-0.2795171428596666,-6.586003553526678
0.2945883351826893,1.2757549886355415,-0.34537717839493337,-6.336611288163954
0.3073458850690447,1.0316942747270463,-0.40874329127657294,-6.0979489321662985
0.31766282781631516,0.7954483687679018,-0.4697227805982359,-5.873792221077087
0.3256173115039942,0.5689924356416113,-0.5284607028090068,-5.6651406079067295
0.33130723586041033,0.3530241560828,-0.5851121088880741,-5.471415000745079
0.3348374774212383,0.14755109785857365,-0.6398262588955249,-5.291237217143327
0.33631298839982404,-0.04775138472619386,-0.6927386310669582,-5.122893695588149
0.33583547455256213,-0.23333529588901067,-0.7439675680228397,-4.964593817465069
0.33350212159367204,-0.4096695005992357,-0.7936135061974904,-4.814604914524687
0.3294054265876797,-0.5771847852564114,-0.8417595553427373,-4.671316973562595
0.32363357873511556,-0.7362506044338897,-0.8884727250783633,-4.5332689123126775
0.31627107269077664,-0.8871693797351402,-0.9338054142014901,-4.399154786620338
0.3073993788934252,-1.03018016479386,-0.9777969620676935,-4.26782017476088
0.29709757724548663,-1.1654669989994322,-1.0204751638153022,-4.138254278824557
0.2854429072554923,-1.293169301704789,-1.0618577066035477,-4.00958061348507
0.27251121423844443,-1.4133928181945592,-1.1019535127383984,-3.8810476654951263
0.25837728605649884,-1.5262202860789265,-1.1407639893933497,-3.7520200968188377
0.24311508319570957,-1.6317213618038362,-1.178284190361538,-3.621970637656641
0.2267978695776712,-1.7299615565426594,-1.2145038967381043,-3.4904726053936663
0.20949825401224462,-1.8210100505267313,-1.249408622792041,-3.3571928964653663
0.1912881535069773,-1.904946325638021,-1.2829805517566946,-3.221885276036445
0.1722386902505971,-1.9818656006877422,-1.315199404517059,-3.0843838041678673
0.15242003424371967,-2.0518830847530753,-1.3460432425587376,-2.944596268844969
0.1319012033961889,-2.1151370877885642,-1.3754892052471874,-2.8024975353415034
0.11074983251830327,-2.171791047616626,-1.4035141806006024,-2.6581227616584195
0.089031922042137,-2.222034549593222,-1.4300954082171866,-2.5115604674726173
0.06681157654620479,-2.266083430013105,-1.4552110128919127,-2.3629454769609572
0.04415074224607374,-2.304179066484872,-1.4788404676615223,-2.212451782810256
0.02110895158122502,-2.336586967750157,-1.500964985489625,-2.0602853991309122
-0.0022569180962765494,-2.3635947814593323,-1.5215678394809342,-1.9066772847788396
-0.025892865910869874,-2.385509841085746,-1.5406346123287227,-1.751876426023355
-0.04974796432172733,-2.402656372455165,-1.5581533765889561,-1.5961431691008072
-0.07377452804627899,-2.4153724764353814,-1.5741148082799643,-1.4397428896759217
-0.0979282528106328,-2.4240069974583007,-1.5885122371767235,-1.282940078436762
-0.1221683227852158,-2.4289163781264063,-1.6013416379610912,-1.1259929108988664
-0.14645748656647986,-2.430461588655227,-1.61260156707008,-0.9691483559541261
-0.17076210245303214,-2.429005206831891,-1.6222930506296211,-0.8126378627389403
-0.19505215452135105,-2.4249087100429985,-1.6304194292570104,-0.6566736499550058
-0.21930124162178105,-2.418530026234243,-1.6369861657565605,-0.5014456067411324
-0.24348654188412347,-2.4102213758464366,-1.6420006218239718,-0.3471188003769445
-0.2675887556425878,-2.400327422182889,-1.6454718098277412,-0.19383157422217467
-0.29159202986441674,-2.3891837335492094,-1.647410125569963,-0.04169420998986065
-0.31548386719990884,-2.3771155469865706,-1.6478270676698614,0.1092118777339999
-0.33925502266977453,-2.3644368104605014,-1.6467349488925214,0.25883444939198985
-0.36289939077437955,-2.3514494677660824,-1.6441466043986015,0.40715028396047276
-0.38641388545204036,-2.3384429377727995,-1.6400751015589967,0.5541645852053247
-0.40979831482976836,-2.3256937263500395,-1.6345334557069435,0.6999099666723588
-0.4330552520932688,-2.3134650945374693,-1.62753435604022,0.844445014356952
-0.4561899030386435,-2.3020066891281696,-1.6190899058966506,0.9878524020635717
-0.4792099699299252,-2.291554020377075,-1.6092113818760148,1.1302365022505745
-0.502125510133696,-2.2823276442409615,-1.597909016853509,1.2717203928006375
-0.5249487865761057,-2.2745318712305473,-1.5851918129255027,1.4124421052565663
-0.5476941052884111,-2.2683527780886767,-1.571067391872937,1.552549889653427
-0.5703776330692979,-2.2639552393581956,-1.5555418929764027,1.6921961817853863
-0.5930171854628798,-2.2614786208599407,-1.538619931158549,1.8315298472328199
-0.6156319716714792,-2.2610306844700685,-1.5203046326862206,1.9706861404806306
-0.6382422785161799,-2.2626791441298684,-1.5005977712814142,2.1097736578813118
-0.6608690699574785,-2.266440192812937,-1.479500034702601,2.248857387998787
-0.6835334718856079,-2.2722632055592724,-1.4570114608226132,2.387936793793309
-0.7062561039412006,-2.2800107494113897,-1.4331320928846802,2.526917744973721
-0.7290562114353145,-2.289433062659004,-1.4078629154349431,2.665577144519873
-0.7519505420619046,-2.300136416257595,-1.3812071439897444,2.803519415050916
-0.7749519062244805,-2.311545418613593,-1.3531719498392352,2.940124873536558
-0.7980673604106164,-2.322860625862682,-1.3237707011038695,3.0744917769429225
-0.8212959666692432,-2.3330150800873684,-1.2930257833344403,3.2053768897713617
-0.8446261174701168,-2.3406368713731265,-1.2609720144367267,3.331144158488412
-0.8680324861838481,-2.344029451268054,-1.2276605728518426,3.4497374044523297
-0.8914727806965287,-2.3411863932287593,-1.1931631988073192,3.558699734746018
-0.9148846446288162,-2.329860434061019,-1.1575762014598592,3.6552666314027804
-0.9381832489694264,-2.307704162635177,-1.1210235351458313,3.73655620353909
-0.9612602905957782,-2.2724872161295995,-1.0836579731104403,3.7998627732974595
-0.9839851627570743,-2.2223703399760324,-1.0456593453774656,3.8430261712069265
-1.0062088661568347,-2.1561854134907437,-1.0072290836653963,3.8648062098875684
-1.027770720291742,-2.073647406219634,-0.9685810215665206,3.8651604525463803
-1.0485071943539384,-1.9754278628704884,-0.9299294170410568,3.845329340006096
-1.0682614729826432,-1.8630577567885047,-0.8914761236409958,3.807686485473207
-1.0868920505505282,-1.738685653603704,-0.8533992587862638,3.755392550313096
-1.1042789070865653,-1.604764128298371,-0.8158453332831328,3.6919554186186114
-1.120326548369549,-1.4637490741151389,-0.7789257790969467,3.6208141392197177
-1.1349640391107003,-1.3178730791455808,-0.7427176377047495,3.5450301936263195
-1.148142769902156,-1.1690154436176938,-0.7072673357684863,3.4671154030287936
-1.159832924338333,-1.018659128682792,-0.6725961817381984,3.388981077138648
-1.170019515625161,-0.8679088323897792,-0.6387063709668118,3.3119712376937382
-1.1786986039490588,-0.7175427094445113,-0.6055866585898745,3.2369410917757335
-1.1858740310435039,-0.5680763355834572,-0.5732172476721171,3.1643509100341034
-1.1915547943993385,-0.41982547734677134,-0.541573738571776,3.0943568362532954
-1.1957530491728063,-0.2729608932249511,-0.5106301702092431,3.026889547321239
-1.1984826581050558,-0.1275528458709983,-0.4803612747360307,2.961717888851528
-1.1997581865637659,0.016394502204629652,-0.4507440958475154,2.8984980370169264
-1.1995942415417196,0.15891750200094257,-0.4217591154773461,2.8368102571324947
-1.1980050665217101,0.3000745970752965,-0.3933910129060212,2.776185739711104
-1.195004320550957,0.43993349340931975,-0.3656291555089102,2.7161258511894792
-1.190604985616864,0.578562579509909,-0.3384678969970154,2.6561157723241506
-1.184819359821765,0.7160255288389602,-0.3119067392737739,2.5956340880176194
-1.1776591045333753,0.8523782686137572,-0.2859503983935977,2.534159518024342
-1.1691353218472378,0.9876677086129164,-0.2606088032133543,2.4711756665541094
-1.1592586447611086,1.1219317877384019,-0.23589704654781318,2.406174422891839
-1.1480393268837246,1.2552005195019853,-0.2118353023188948,2.3386584569558666
-1.1354873216887047,1.3874978075818993,-0.18844871774933614,2.268143112407202
-1.1216123436128858,1.5188438663614408,-0.1657672866252641,2.19415789512032
-1.1064239049492715,1.6492581251328804,-0.14382570767406092,2.1162476778891204
-1.0899313236979427,1.778762523375773,-0.12266323089516971,2.0339736865622453
-1.072143698464185,1.907385121926906,-0.10232349402954727,1.9469142936910568
-1.053069847244916,2.035163963595291,-0.0828543510926367,1.8546656202236835
-1.0327182076089632,2.162151118525864,-0.06430769489039986,1.7568419322461053
-1.0110966964237045,2.2884168451642966,-0.04673927556793881,1.6530758180478555
-0.9882125279720615,2.4140537868686165,-0.030208517387460256,1.5430181419994518
-0.9640719901033753,2.539181105803036,-0.014778335967465738,1.4263377984864947
-0.938680179045345,2.663948427084936,-0.0005149579826007906,1.3027213359251912
-0.9120406947744956,2.788539422677647,0.012512255376651122,1.1718725946599478
-0.8841553005477191,2.9131747989877868,0.0242309813232506,1.0335126138018806
-0.8550235525578412,3.0381143534868738,0.0345661074612694,0.8873802263092502
-0.8246424090229725,3.1636576174976216,0.0434399097243619,0.7332340014798912
-0.7930058328479963,3.2901423806468664,0.050772249739160814,0.5708565421359103
-0.7601044090415277,3.4179400634363972,0.05648081516051992,0.4000626461229355
-0.7259250084071637,3.547446421400778,0.060481441621749274,0.2207135609470072
-0.6904505441931559,3.6790653672775737,0.06268857723121934,0.03274057664484098
-0.6536598905203801,3.813182716940736,0.06301598299766775,-0.16381739363436099
-0.6155280633509728,3.9501253394110494,0.061377809061324146,-0.3687557281488514
-0.5760268099568623,4.09009951774534,0.05769025177983563,-0.581616670433902
-0.5351258147794089,4.233100475539828,0.05187408507549661,-0.80156122288332
-0.4927948100240106,4.378783573842369,0.04385847284666341,-1.0271871897914195
-0.4490069742855869,4.5262880647367485,0.03358660094874921,-1.2562811139125618
-0.4037440936382194,4.674009449362315,0.02102378980962359,-1.4854997381193178
-0.35700399914459624,4.819331578526952,0.006168792428430414,-1.7099988107579247
-0.3088106833593267,4.958361681839793,-0.010931195679148834,-1.9230734544116304
-0.25922706654092875,5.085765481555105,-0.03016193022326514,-2.1159517468278186
-0.2083694117253777,5.1948666407323145,-0.05132144769154333,-2.27797861393745
-0.15642074531805455,5.278212501167623,-0.07410123383091782,-2.3974794309774325
-0.10363862030637833,5.328730493834722,-0.09807602814069215,-2.4634790093845353
-0.050351315368031106,5.341328091075427,-0.1227108182345375,-2.468059872575484
0.003061965542723165,5.3143936170583626,-0.14739141696029234,-2.408574377374328
0.05620590171330679,5.250451335686026,-0.17147716073403563,-2.2886302328651906
0.10871041507016704,5.155543365621138,-0.19436346306268754,-2.1172240763811665
0.16026584872637842,5.037624965886161,-0.2155357038264992,-1.9064237248314022
0.21064209838524003,4.904766961358474,-0.23459994107481322,-1.6687373826711158
0.25968976799882476,4.763862745613501,-0.2512873149015244,-1.4151832547567622
0.30732839545495977,4.620067019789953,-0.265439147449092,-1.154404859096115
0.3535290656528593,4.476805882431184,-0.27698319604005317,-0.892617482212436
0.39829712447717114,4.336079510377634,-0.28590937086217755,-0.6339924879365285
0.44165791958094747,4.1988400925761935,-0.29224929574154285,-0.3811668786199151
0.4836463205067094,4.065330999016647,-0.296060964527742,-0.13571022199583893
0.5242996304968759,3.9353491678934756,-0.2974180667477004,0.10151035101503894
0.5636531221758107,3.808431665450431,-0.29640296323755,0.33006947140769893
0.6017374388303149,3.6839813937338834,-0.293102268523473,0.5498081727526167
0.6385772527676538,3.5613486467065782,-0.2876041867959468,0.7607212836862816
0.6741907392347195,3.439882408144673,-0.27999697395908396,0.9628882757171673
0.7085895633161663,3.318961609802847,-0.2703680912019123,1.1564330628658925
0.7417791794141948,3.1980133831252333,-0.2588037605732534,1.3415025434960592
0.7737593132454471,3.0765229540985635,-0.2453887351382928,1.5182569538615478
0.8045245427864327,2.9540381740336885,-0.23020616559967733,1.6868674256296377
0.8340649245267696,2.8301705767348935,-0.21333749134338095,1.847517721206691
0.8623666302941185,2.704594140646652,-0.19486231413131405,2.0004081760751204
0.8894125717005851,2.5770424859025813,-0.17485823237056286,2.1457605760617504
0.9151829965596109,2.447304960301256,-0.15340062660994536,2.2838231604572705
0.9396560461626234,2.315221903627166,-0.13056239500537264,2.414875251003842
0.9628082651988951,2.1806792856500605,-0.10641364249533422,2.5392312154772356
0.9846150580553956,2.0436028629314857,-0.08102133034056186,2.6572436170647613
1.0050510866847104,1.9039519760722892,-0.05444889416991425,2.7693054982786385
1.0240906064454334,1.7617131014290341,-0.026755839187127862,2.8758518136336
1.0417077374597237,1.6168932731384666,0.00200267894920814,2.9773600661413715
1.0578766701911084,1.4695134991582064,0.031776279610621856,3.0743502225247634
1.0725718051826905,1.3196023080035788,0.0625197818358695,3.1673839819605756
1.0857678282627263,1.1671895820479505,0.09419362165547525,3.257063451946956
1.097439724083206,1.0123008617918838,0.1267642561749448,3.3440292391692528
1.1075627327011248,0.854952348759189,0.16020454856663732,3.428957886998052
1.1161122561887167,0.6951469006960522,0.19449412743661784,3.5125584750571424
1.1230637251956772,0.5328714129742336,0.22961971218718927,3.5955680260965326
1.1283924393254194,0.36809613027513055,0.2655753924481546,3.67874512101691
1.1320734006281707,0.2007766537515416,0.30236284365832367,3.762860776406265
1.134081167165686,0.030859727656021102,0.3399914514223863,3.848685153707522
1.1343897644422463,-0.1417056628214861,0.3784783029594615,3.9369680009438404
1.1329727078140315,-0.31694974365290185,0.4178479829688999,4.028409832132067
1.1298032103775024,-0.4948530342640154,0.4581320812902206,4.123619701371341
1.1248546800348622,-0.6753032219305806,0.499368278303934,4.223054071038287
1.1181016478155563,-0.858033093134871,0.5415988190143168,4.326929916587894
1.1095213168842075,-1.042534325572836,0.5848681181801958,4.435104417751034
1.099095973628479,-1.2279428083345107,0.6292191623577061,4.546914582389296
1.086816545545134,-1.4128949976389953,0.6746883081815991,4.660975230262252
1.072687595568744,-1.5953642380499875,0.7212980604842216,4.774946583159116
1.0567339531882443,-1.7725041268724364,0.7690475263158127,4.885307722605657
1.0390089119195198,-1.940554407204525,0.8179006035418693,4.987211697488935
1.0196033678474745,-2.094898192826348,0.8677727205167587,5.074544918721911
0.9986543859192111,-2.230377416163596,0.9185181697039778,5.140339933593015
0.9763506117575751,-2.3419384372169936,0.969921569039908,5.177644215510277
0.9529312273854051,-2.425556259754437,1.0216980111950107,5.180778465060067
0.9286756647878608,-2.4791941614270088,1.0735057958456113,5.146653452646098
0.9038837231735907,-2.5034168973743345,1.1249723303720722,5.075621754364207
0.8788495541998473,-2.5013490613162723,1.1757285479157142,4.971439963972259
0.8538360635866846,-2.4779725722114536,1.225442947555437,4.840331681637044
0.8290563378645701,-2.4390794764033457,1.2738462643718074,4.689583146369475
0.8046655431005366,-2.390295655129583,1.320742095835502,4.52623794278272
