th1 (rad),w1 (rad/s),th2 (rad),w2 (rad/s)
0.3817090536026112,2.0817631927115996,4.273269801479131,-2.802322607136221
0.4025266855297272,2.0544383667921164,4.245246575407768,-2.7040746502984807
0.42307106919764836,2.028815366123663,4.218205828904783,-2.60892644169346
0.443359222858885,2.0043654230974313,4.192116564487849,-2.517037242302102
0.46340287708985933,1.9805511222430108,4.166946192064827,-2.428640794500398
0.48320838831228946,1.9568295920372263,4.142659784119823,-2.3440333868399024
0.5027766842326618,1.9326582264746741,4.119219450251425,-2.2635595700501296
0.5221032664974085,1.907502705891516,4.096583854550923,-2.18759557167699
0.5411782935563236,1.8808469099605032,4.074707898834153,-2.116530765059328
0.5599867626559286,1.852204134864797,4.05354259118356,-2.050747857535036
0.5785088040045766,1.8211288693994627,4.03303511260821,-1.990602734079089
0.5967200926985712,1.7872282798008379,4.013129085267419,-1.9364050846425829
0.6145923754965795,1.7501725242449644,3.9937650344209934,-1.8884010207272948
0.6320941007390292,1.7097030786560268,3.9748810242137202,-1.846758827893787
0.6491911315255894,1.665638405125735,3.9564134359347825,-1.811558805082719
0.6658475155768467,1.617876517361377,3.9382978478839554,-1.7827878302827795
0.6820262807504605,1.5663942662724828,3.9204699695811276,-1.760338905820212
0.6976902234131853,1.511243448137153,3.9028665805229257,-1.7440155275706493
0.7128026578945569,1.4525440924821613,3.885426425247219,-1.7335403444863302
0.7273280988193785,1.3904754876096925,3.8680910218023556,-1.7285672735683701
0.7412328536954754,1.3252656298833017,3.850805349066672,-1.7286960409339227
0.7544855099943084,1.2571798321032315,3.8335183886573327,-1.7334880433418545
0.7670573083153407,1.1865092017939722,3.816183508223914,-1.7424824599296123
0.7789224003332804,1.1135596160283334,3.798758683624618,-1.755211670522378
0.7900579964935638,1.038641694575901,3.781206566919394,-1.7712152260163878
0.8004444134393228,0.9620621279690896,3.76349441465923,-1.7900518369954261
0.8100650347190137,0.8841165699370835,3.745593896289276,-1.8113090704932973
0.8189062004183846,0.8050841690799573,3.727480805584343,-1.8346106491439902
0.8269570421091842,0.7252237023483195,3.7091346990929033,-1.8596214167844523
0.8342092791326674,0.6447711877898034,3.690538484925059,-1.8860501622763428
0.8406569910105655,0.5639387969685448,3.6716779833022954,-1.9136505776910147
0.8462963789802509,0.48291485625511926,3.6525414775253853,-1.9422206716348438
0.8511255275428021,0.40186471669639684,3.6331192708090367,-1.971600969952171
0.8551441747097661,0.32093227938079494,3.613403261109515,-2.0016718222690955
0.858353497503574,0.24024198199921115,3.5933865428868237,-2.0323501018509718
0.8607559173235662,0.15990107802308837,3.573063041868314,-2.063585545255645
0.862354928103797,0.08000206873093699,3.5524271864157577,-2.09535693319295
0.8631549487911063,0.0006251772839209885,3.531473617083828,-2.127668269295521
0.8631612005639455,-0.07815921885135192,3.5101969343908728,-2.160545072190629
0.862379608375432,-0.15628825685204534,3.4885914836689667,-2.194030860128665
0.8608167258069116,-0.23370439832085577,3.46665117506768,-2.2281838772831177
0.858479681823703,-0.31035340296497227,3.444369336294849,-2.263074086787168
0.8553761477940534,-0.38618247652343357,3.421738595426977,-2.2987804372370935
0.851514323028819,-0.4611385938903079,3.398750791054606,-2.335388396121007
0.8469029370899159,-0.5351669918197806,3.375396907093396,-2.372987734647255
0.8415512671717181,-0.6082098213887093,3.351667029746923,-2.4116705429564367
0.8354691689578311,-0.6802049480624004,3.3275503243173588,-2.4515294519608952
0.8286671194772071,-0.7510848863383812,3.30303502979775,-2.492656037410098
0.8211562706138232,-0.8207758561694687,3.278108469423649,-2.5351393826782265
0.8129485120521286,-0.8891969493932329,3.2527570755968664,-2.5790647787658236
0.8040565425581963,-0.9562593959811004,3.226966427809208,-2.624512542752684
0.7944939485983853,-1.0218659218799189,3.200721302381681,-2.671556939171923
0.7842752893795861,-1.0859101924078929,3.174005732989962,-2.720265192303712
0.7734161874555072,-1.1482763374751428,3.1468030810669245,-2.7706965810759923
0.7619334240807558,-1.2088385572411293,3.1190961152561645,-2.8229016120154133
0.7498450385083445,-1.2674608091277093,3.0908670991360103,-2.876921269451499
0.7371704304170674,-1.3239965793177944,3.0620978864414954,-2.9327863458968024
0.7239304646238894,-1.3782887439287599,3.032770022982527,-2.9905168591718243
0.7101475771846019,-1.4301695268981556,3.002864854390809,-3.050121566384844
0.6958458819156204,-1.4794605631921165,2.9723636387269607,-3.1115975882790483
0.6810512762836992,-1.5259730771702116,2.9412476628441704,-3.1749301606796676
0.6657915455119972,-1.5695081867293115,2.9094983612373735,-3.24009253275748
0.6500964636447041,-1.6098573441066524,2.8770974359097985,-3.307046034503014
0.6339978902036375,-1.6468029238407995,2.8440269755647685,-3.375740338094217
0.6175298609652295,-1.6801189672521217,2.8102695721838264,-3.446113939641481
0.6007286712927083,-1.7095720907905336,2.7758084327874117,-3.5180948889993338
0.583632950384803,-1.7349225625881,2.7406274838974185,-3.591601795830532
0.566283724758922,-1.7559255474379978,2.704711465939113,-3.6665451397860096
0.548724469284542,-1.7723325151099376,2.668046014541253,-3.742828911428811
0.5310011441334426,-1.7838928003484513,2.6306177254269647,-3.820352608317512
0.513162216129958,-1.7903552950730417,2.5924141993437897,-3.8990136074583774
0.4952586631792276,-1.7914702442553783,2.553424063269206,-3.978709931187238
0.47734396073667384,-1.7869911068064022,2.5136369639573335,-4.059343418592615
0.45947404966860983,-1.7766764317622696,2.4730435297714073,-4.140823309091845
0.44170728535098713,-1.76029168839133,2.431635296680489,-4.223070239101013
0.42410436846707383,-1.7376109769108037,2.389404594289479,-4.306020647418175
0.4067282586979658,-1.7084185347201428,2.346344387815297,-4.389631580635457
0.3896440733507644,-1.6725099418840927,2.3024480720089424,-4.473885887419484
0.37291897393192347,-1.6296929194891456,2.2577092131347474,-4.558797790787166
0.356622044737032,-1.5797876058654028,2.2121212352268755,-4.64441883158548
0.340824168678378,-1.5226261888322392,2.165677046911021,-4.730844185339437
0.3255979067900556,-1.4580517672743234,2.1183686050576265,-4.818219369528971
0.3110173891173124,-1.3859163125053493,2.0701864113623367,-4.906747380167706
0.29715822599225894,-1.306077598899855,2.0211189375606597,-4.99669632605824
0.28409745000326037,-1.2183949739661575,1.9711519743000774,-5.08840766670808
0.2719135002635988,-1.1227238403138902,1.9202678976329965,-5.182305205425061
0.2606862618604599,-1.0189087262586853,1.868444845578746,-5.278905041366858
0.2504971745978731,-0.9067748297261629,1.8156557951650774,-5.378826740312904
0.24142942630061145,-0.7861179357306628,1.7618675277619482,-5.482806037499853
0.23356824694330483,-0.656692639700582,1.7070394673869498,-5.591709425091398
0.227001320546299,-0.5181988744831013,1.6511223731360358,-5.706550979258675
0.221819331801468,-0.3702668705498311,1.594056863343449,-5.82851170552322
0.2181166630959697,-0.21244093706392586,1.535771746288217,-5.95896144827222
0.21599225372533043,-0.044162946500712646,1.4761821318054948,-6.099482877590602
0.21555062426032331,0.13524266153051157,1.4151873030295887,-6.251895968905655
0.21690305087562842,0.32657880617929286,1.3526683433405322,-6.418279241360405
0.22016883893742134,0.5307738743085979,1.2884855509269282,-6.600979928799743
0.22547657768050733,0.7488554367355027,1.2224757516389309,-6.802597613467492
0.23296513204786234,0.9818764882984582,1.154449775504256,-7.02591181692924
0.24278389693084693,1.2307525507803567,1.0841906573349636,-7.273698840074457
0.2550914224386505,1.4959362980749167,1.011453668934219,-7.548339549156646
0.2700507854193997,1.776806133041954,0.9359702734426526,-7.85104961913639
0.2878188467498192,2.0705777466259785,0.8574597772512887,-8.180467431004011
0.308524624216079,2.3704968232320733,0.7756551029412486,-8.530256245219597
0.3322295924483997,2.663170004430961,0.6903525404890527,-8.885496642417328
0.3588612924927093,2.9254868225601305,0.6014975740648794,-9.218438746754922
0.3881161607183106,3.123202867233436,0.5093131865973302,-9.486382114483906
0.419348189390645,3.215615650627473,0.4144493654524911,-9.63769274953573
0.45150434589691973,3.170218312134259,0.3180724379571338,-9.63125263590472
0.48320652901826233,2.9817534310985705,0.2217599115980866,-9.461740614346422
0.513024063329248,2.67818995152973,0.1271425054546224,-9.167066970308657
0.5398059628445453,2.305060857051832,0.03547183575153584,-8.806805274292707
0.5628565714150636,1.903796581435972,-0.05259621699139122,-8.43330014423951
0.5818945372294233,1.5014306709303622,-0.1369292184337863,-8.078686521672967
0.5969088439387269,1.1116952457453722,-0.21771608365051598,-7.75715742779249
0.6080257963961806,0.7398657324877476,-0.29528765792844086,-7.471871289982687
0.615424453721058,0.38685929839187516,-0.3700063708282677,-7.220537739430068
0.6192930467049768,0.05171546501997981,-0.44221174822256837,-6.998683081004803
0.6198102013551765,-0.2671214539247974,-0.5121985790326165,-6.801269909199403
0.6171389868159285,-0.5712056284513352,-0.5802112781246105,-6.623406884767881
0.6114269305314152,-0.8618435806203935,-0.6464453469722893,-6.46061302465763
0.6028084947252113,-1.1400164495340794,-0.7110514772188656,-6.308882125910418
0.5914083302298705,-1.406379336072236,-0.7741402984779698,-6.164666779264883
0.5773445368691481,-1.661293944296271,-0.8357869662706187,-6.02483688169472
0.5607315974261854,-1.9048741961562117,-0.8960353350875658,-5.886636301788103
0.5416828554646232,-2.1370356789528424,-0.9549016981054469,-5.747646677929897
0.5203124986750948,-2.3575449377381146,-1.0123781648847459,-5.6057606161753455
0.4967370492977136,-2.566066877988918,-1.0684357710464993,-5.4591635967886925
0.4710763805178244,-2.762209435651595,-1.1230274070143862,-5.306322698700523
0.44345428616130844,-2.9455649550969962,-1.1760906340013915,-5.145979876992961
0.4139986366103385,-3.115747759754814,-1.2275504327713211,-4.977147549848418
0.3828411590127903,-3.2724273845702814,-1.2773219082698053,-4.799104470715262
0.3501168851670875,-3.4153569469289535,-1.3253129529769578,-4.611390185627161
0.31596331569779795,-3.5443961953571934,-1.3714268548332293,-4.413796755925317
0.28051935374422604,-3.6595288972732485,-1.4155648223924826,-4.206356831892588
0.24392406477149356,-3.760874397369495,-1.4576283907114085,-3.9893275686272225
0.2063153207977986,-3.848693378674013,-1.4975216663976807,-3.7631702610239337
0.16782838701105846,-3.9233880688512572,-1.53515336900792,-3.528525922516231
0.12859450632254588,-3.985497336241529,-1.5704386282330822,-3.286187328703309
0.0887395329601306,-4.035687298328305,-1.6033005015201154,-3.0370682827282662
0.04838265997684754,-4.074738208715161,-1.633671184347398,-2.7821710287331958
0.007635277889695931,-4.103528490211194,-1.66149289463473,-2.5225528405633058
-0.03340000701241601,-4.123016837570242,-1.6867184230403631,-2.259292845479033
-0.07463017538811843,-4.134223322885212,-1.7093113514951535,-1.9934601097988232
-0.11597240861697056,-4.138210401059958,-1.7292459525931416,-1.7260839206666858
-0.15735451262757014,-4.136064635823731,-1.7465067917998085,-1.4581270541587652
-0.19871515898580744,-4.128879854178739,-1.7610880623413963,-1.1904626367480051
-0.24000395752759482,-4.117742296599323,-1.7729926887088763,-0.9238550000089931
-0.28118138049358804,-4.103718170623175,-1.7822312387089663,-0.6589447151408022
-0.3222185621998198,-4.087843845847907,-1.7888206858603743,-0.3962377934862846
-0.36309700065829886,-4.071118756816907,-1.792783063795237,-0.13609887077098515
-0.4038081882264679,-4.054500912169178,-1.794144052502947,0.12125192570400745
-0.4443531973481597,-4.038904744615239,-1.792931533245907,0.37573877934220967
-0.4847422447943121,-4.025200871430247,-1.789174145452485,0.627426976447951
-0.5249942535086146,-4.014217155676588,-1.7828998756880055,0.8765168736763618
-0.5651364250653805,-4.006740240112749,-1.7741347069512419,1.123334961177021
-0.605203827466508,-4.003516430624148,-1.7629013573394716,1.368321506741752
-0.6452389917727495,-4.0052503774458055,-1.749218142272054,1.6120135980095487
-0.6852914955472075,-4.012599359564165,-1.7330980062919585,1.8550214027084333
-0.7254174891428491,-4.0261600097175245,-1.7145477922648742,2.097994002865749
-0.7656790892400244,-4.0464428834311095,-1.6935678522362168,2.3415690455325153
-0.8061435180743355,-4.073828223507152,-1.6701521617808917,2.586297489003473
-0.846881800309407,-4.108493510230359,-1.644289186890857,2.8325307903534784
-0.8879667354117106,-4.150300084843002,-1.615963878987322,3.0802532150200532
-0.9294697362601406,-4.198623180040277,-1.5851613468371215,3.3288377944410743
-0.9714559680605434,-4.252109650603736,-1.5518729688927109,3.576704387765317
-1.0139770645665807,-4.308356432373386,-1.5161059250150577,3.8208704926230115
-1.0570606288903146,-4.363531311542945,-1.4778972200888276,4.056425296328176
-1.100695942005744,-4.412021642137468,-1.437332967125546,4.2760468088875205
-1.1448161584271188,-4.446305718720414,-1.3945724990366708,4.469833887777508
-1.189279215614323,-4.457365193991985,-1.3498741601588957,4.625896648063379
-1.2338528675542428,-4.435971702492451,-1.3036151936782618,4.732166825091595
-1.2782125845791674,-4.374875380820369,-1.256293525427346,4.779458561257518
-1.3219613383873712,-4.271225070490664,-1.2084989398147707,4.764831408653175
-1.3646735890922779,-4.127920932290087,-1.160850625728239,4.6934320704506876
-1.4059527984151787,-3.9528949876600823,-1.113916305023732,4.577418231196983
-1.4454817482917794,-3.7566390734812223,-1.0681421227117622,4.432434390648036
-1.4830481390265917,-3.5494178211773746,-1.0238177788052818,4.273672920262717
-1.5185423172383654,-3.33944179751881,-0.9810810496026546,4.113310169810028
-1.5519367352135536,-3.1323021343014164,-0.9399479479045544,3.959729823222194
-1.5832597565565678,-2.9312534540257804,-0.9003506496723325,3.8179420748124984
-1.6125722910968256,-2.7378184520714437,-0.8621712289242075,3.690452580058122
-1.63995047561754,-2.5523833737046306,-0.8252667031236263,3.5781144773521865
-1.6654743093545863,-2.3746580751223823,-0.7894855583501044,3.48078611166417
-1.6892208901058101,-2.203989208182248,-0.7546776972334627,3.3977791031419953
-1.7112607821876327,-2.0395569742547415,-0.7206999062020427,3.32814029946015
-1.7316563519301802,-1.8804914124927887,-0.6874185032074412,3.2708187448149038
-1.750461266055108,-1.7259371960639758,-0.6547103157592922,3.224758806654228
-1.7677206380157477,-1.5750871085437175,-0.6224627276927499,3.1889481042671313
-1.783471509101185,-1.427197231501388,-0.5905732466500786,3.1624387573725907
-1.797743481416199,-1.2815918964767952,-0.5589488590763527,3.1443534159677604
-1.8105594003809669,-1.1376632317329374,-0.5275053249166751,3.1338829627519327
-1.8219360326982963,-0.9948681316597232,-0.4961664952891558,3.1302799389789064
-1.8318847140148935,-0.8527242631181834,-0.4648636958993667,3.1328500234332526
-1.8404119566460753,-0.7108059996978704,-0.4335351956650342,3.1409428701343693
-1.8475200166430539,-0.568740749144393,-0.4021257669636905,3.1539430109710804
-1.8532074241344978,-0.426205891356115,-0.3705863368539797,3.1712611854280013
-1.857469483048059,-0.2829264014701795,-0.33887372499969964,3.192326267736209
-1.8602987470627608,-0.138673150853517,-0.3069504623223376,3.216577860034626
-1.861685478571296,0.0067381678154535,-0.27478468372199133,3.243459571250947
-1.8616180968931415,0.1534475721578891,-0.24235008800948185,3.27241298314483
-1.8600836211715626,0.3015508754696199,-0.20962595817803353,3.302872303950277
-1.8570681124168664,0.4510994336321803,-0.17659723513853076,3.334259718222735
-1.8525571180805447,0.6020996691759019,-0.14325463795630342,3.365981453842193
-1.8465361213887856,0.754512494376568,-0.10959482341788149,3.3974246004455457
-1.83899099644502,0.9082527603292194,-0.07562057741342604,3.427954725699244
-1.8299084688417278,1.0631888626196975,-0.041341030156433596,3.4569143452284106
-1.8192765802155308,1.2191426359967077,-0.0067718867041494865,3.4836223075298878
-1.8070851538555637,1.3758896696651568,0.02806433637114939,3.5073741559415734
-1.7933262571589121,1.5331601707829687,0.06313807793056513,3.527443525114051
-1.7779946554510824,1.6906404958525256,0.09841251318170563,3.543084619116534
-1.7610882504925571,1.8479754575585086,0.13384335937287098,3.553535802314132
-1.742608495916972,2.00477149810328,0.1693787173960123,3.558024312830346
-1.7225607809359393,2.1606007994497762,0.20495896052431575,3.55577208244815
-1.7009547729414416,2.3150063766609934,0.24051668134879725,3.5460026171762533
-1.6778047091748316,2.4675081735783166,0.2759767075205598,3.527948860553824
-1.6531296274390483,2.6176101514515837,0.31125619612609806,3.500861928232781
-1.6269535259245325,2.7648083319047125,0.34626481540842585,3.4640205684223524
-1.5993054426054854,2.9085997267401575,0.3809050210926494,3.4167411689985028
-1.5702194453380838,3.048492059205196,0.41507243278263445,3.3583880985711145
-1.539734524746032,3.184014154715439,0.4486563137683456,3.288384135160915
-1.5078943831988776,3.3147268535108614,0.48154015511995474,3.2062207016071986
-1.474747114663769,3.4402342729074524,0.5136023621360267,3.1114675906231892
-1.4403447719346945,3.560195222344473,0.5447170380422586,3.003781824224889
-1.4047428197112497,3.6743345504167872,0.5747548562845075,2.8829152528244726
-1.3679994742070818,3.782454180568846,0.6035840088127522,2.748720460952692
-1.3301749324013934,3.884443573523883,0.6310712134222791,2.601154513664577
-1.2913304966661545,3.9802893438445683,0.6570827585589248,2.4402800564094127
-1.2515276032277087,4.070083760800595,0.681485559123019,2.2662632790504564
-1.2108267656197027,4.154031886493209,0.7041481919135235,2.0793682794547927
-1.1692864467547706,4.23245715356448,0.7249418747080715,1.8799474196487362
-1.1269618752191257,4.305805266210454,0.7437413489045588,1.6684273602620725
-1.0839038225570212,4.374646424464337,0.7604256225071795,1.4452905835440952
-1.0401573583123778,4.439676021938026,0.7748785283426204,1.2110523613739135
-0.9957605980929976,4.5017141462021915,0.7869890519563595,0.9662332750844892
-0.9507434566309756,4.561704409412738,0.7966513847072044,0.7113275255710866
-0.9051264125368482,4.620712842211392,0.8037646599629152,0.44676735941012224
-0.8589192841147343,4.67992778232062,0.8082323335570165,0.17288395580719823
-0.8121200062915281,4.740661866331624,0.8099611731150885,-0.11013494597494106
-0.764713387628212,4.804357374222793,0.8088598236553391,-0.40229054979286966
-0.716669813885984,4.872596262332888,0.8048369181574104,-0.7038217206758501
-0.6679438512626552,4.94711621854928,0.797798700950652,-1.0152572144864591
-0.6184726890771624,5.029833912476483,0.7876461288057874,-1.3374717946118078
-0.5681743499523976,5.122876137453952,0.7742714108596693,-1.6717462922394613
-0.516945588577858,5.228618414250977,0.7575539479372747,-2.019830429224301
-0.46465940443534826,5.349728139593302,0.7373556436450317,-2.3840040262007043
-0.41116212303941524,5.489204049297823,0.7135156033830247,-2.767124969098359
-0.356270082546437,5.650392629205155,0.6858443536920411,-3.172636781001927
-0.29976615625438546,5.836939131438621,0.6541179858820219,-3.60447640869229
-0.24139676493999926,6.0525843506302754,0.6180732217950989,-4.066757533398168
-0.1808709214336965,6.300627181215357,0.5774056464611173,-4.5629768758597935
-0.11786464962154294,6.582705713897228,0.5317758777025193,-5.094256714165522
-0.05203759248257066,6.896286514979657,0.4808333105608641,-5.655769301775696
0.01692527266722592,7.230005150745887,0.4242756175431071,-6.23014783798533
0.08922532417468479,7.556420183623445,0.3619741391632538,-6.777290275131939
0.16478952601091923,7.82476288991736,0.2942012364119344,-7.224231710139398
0.2430371549100928,7.964172454815224,0.22195891931054043,-7.4699069484140965
0.322678879458245,7.913470041432797,0.14725984982639945,-7.427421084544798
0.401813579872573,7.669030458269581,0.07298563898095146,-7.091822012809011
