th1 (rad),w1 (rad/s),th2 (rad),w2 (rad/s)
3.3019637328722853,2.7021032263103657,1.40726849205777,-3.1390095803366087
3.328984765135389,2.66478490610126,1.375878396254404,-3.1783622549141906
3.3556326141964017,2.6279724500252764,1.344094773705262,-3.2223557289519023
3.3819123386966545,2.5914645748049407,1.311871216415743,-3.2709603586981695
3.407826984444704,2.5550913683135628,1.2791616128287613,-3.3241477243956474
3.4333778981278398,2.5187219762394633,1.2459201355848049,-3.381876146462198
3.4585651178902346,2.4822757702366833,1.212101374120183,-3.4440722688310585
3.4833878755926015,2.4457377504435827,1.1776606514318724,-3.5106076208041737
3.507845253097037,2.4091789576512856,1.1425545752238306,-3.581269049559
3.53193704267355,2.372782544242695,1.1067418847282406,-3.655722092603349
3.555664868115977,2.336875756984828,1.0701846638022072,-3.7334668956553956
3.5790336256858253,2.301967246920601,1.0328499948456533,-3.813787408167798
3.6020532981550315,2.2687876297568033,0.9947121207639753,-3.89569659320666
3.6247411744525997,2.238328872981197,0.9557551548319088,-3.9778835455186616
3.647124463182412,2.2118748193073174,0.9159763193767222,-4.058672814933352
3.669243211375485,2.1910112755374826,0.8753895912273887,-4.136011480967522
3.69115332413086,2.1776006022906507,0.8340294764177134,-4.207504283498963
3.7129293301537665,2.1737046085914,0.7919544335827238,-4.270518732703925
3.7346663762396806,2.1814436216825124,0.7492492462556846,-4.322376777532753
3.756480812456506,2.2027915441298758,0.706025478480357,-4.360633675304868
3.7785087278978047,2.239326850693214,0.6624191417273083,-4.383417688308764
3.800901996404737,2.291983171466165,0.6185849648442207,-4.389772319915715
3.8238218281193985,2.360860027149666,0.5746872416450635,-4.379919833426143
3.8474304283908953,2.445152300538557,0.5308880433108021,-4.355367081856993
3.871881951396281,2.543230446233293,0.48733437249223216,-4.318809972263678
3.897314255858614,2.652859916437511,0.4441462727695954,-4.273851088634648
3.923842855022989,2.7715069701978736,0.4014077618832489,-4.22460057652106
3.9515579247249675,2.896658026217928,0.3591617561180383,-4.175257810280758
3.9805245049871467,3.026087708416582,0.3174091780152307,-4.129761517228745
4.010785382071313,3.1580383030364585,0.27611156284294325,-4.091559926373158
4.042365765101677,3.291304879277889,0.23519596357921166,-4.0635108139167535
4.075278813894456,3.425243344063436,0.19456085544004412,-4.047890671017479
4.10953124733509,3.559728841553082,0.15408194872986933,-4.0464785897948214
4.1451285357506205,3.695091500291853,0.11361716283192111,-4.0606809576592235
4.182079450753539,3.83205051590758,0.07301035325532887,-4.091671266778821
4.220399955912615,3.9716602736634203,0.032093640587540655,-4.140529617915664
4.2601165586492495,4.115276180914025,-0.009311655591615987,-4.208375531425805
4.30126932045839,4.264543978824915,-0.05139541090587404,-4.296494337487541
4.343914760246639,4.421414454770195,-0.09436035428074946,-4.406461858660593
4.388128904794341,4.5881852185522565,-0.1384249728673554,-4.540274977925083
4.4340107569798635,4.767572007718252,-0.18382772264660624,-4.700497655674828
4.481686477057046,4.962813308439243,-0.23083269920335453,-4.890433349273168
4.531314610141439,5.177813162675982,-0.2797370326960862,-5.114335253491953
4.583092741768199,5.417326312531343,-0.3308803852310057,-5.377663529235422
4.637266004893512,5.6871834593024255,-0.3846570205233599,-5.687388519857893
4.694137839486536,5.9945326212153915,-0.44153090572193887,-6.052307241565776
4.75408316569869,6.348010659820287,-0.5020539781375967,-6.483252530141506
4.817563272296892,6.757595508136934,-0.5668865034390117,-6.992843794425514
4.885139227378262,7.2334774092917185,-0.6368149413832669,-7.5938488239488535
4.957474001471179,7.78231284538703,-0.7127534296227555,-8.293856576693925
5.035297129925049,8.397243067594811,-0.7956919953896947,-9.081175144018003
5.119269560600998,9.035719113975581,-0.8865037468298748,-9.893575597273076
5.209626751740753,9.584631300782803,-0.9854395028026055,-10.56916154558463
5.305473064748582,9.852296082285978,-1.0911311182584518,-10.83494930931634
5.403996025571441,9.688523547438379,-1.1994806113516152,-10.475431117044268
5.500881261045825,9.177471168509255,-1.304234922522058,-9.603512279856055
5.592655972730917,8.562683413622578,-1.4002700453206185,-8.556126928173125
5.678282806867142,8.009647956055407,-1.4858313146023496,-7.562276514936025
5.758379286427696,7.566544628315677,-1.5614540797517098,-6.687780752797501
5.834044732710853,7.229044925204618,-1.6283318872796848,-5.925186608285019
5.906335181962899,6.980382934830046,-1.687583753362535,-5.249411795937722
5.9761390113112,6.804425981652308,-1.7400778713219123,-4.635960720016735
6.044183271127723,6.688385552931789,-1.7864374785220796,-4.064810378733072
6.1110671266570415,6.622635231136508,-1.8270855823094103,-3.520321317454302
6.177293478968407,6.599951869058709,-1.8622887954839533,-2.990389067071698
6.243292997658994,6.614780288421457,-1.8921926861546703,-2.4656741235426196
6.309440800543208,6.662633241126662,-1.9168494273900964,-1.9390680804783065
6.376067132954475,6.739617855123753,-1.9362401081948795,-1.4053784131445604
6.443463311505712,6.84206234802017,-1.950293892326325,-0.8611774831163836
6.511883934985914,6.9662256888472935,-1.958905667157489,-0.30475697565792104
6.581546191874387,7.108086164807407,-1.9619532369140682,0.26387076960671496
6.652627053522461,7.263215550111968,-1.959314529218001,0.842982838999383
6.725259209023581,7.426750540775782,-1.9508847008280072,1.4292225407867252
6.799526714431339,7.593470176382033,-1.93659247542014,2.017787791846251
6.87546141619516,7.757976506310212,-1.9164145975016775,2.6027548048534843
6.9530411812582615,7.914957909428475,-1.8903870494531427,3.1775296845774648
7.032190760352546,8.059495619947626,-1.858611752607368,3.7353858419796167
7.112785716552023,8.187361422822605,-1.821257894187572,4.270017366533048
7.194659330780249,8.295254195239314,-1.7785577205222414,4.776027975924955
7.277611872732642,8.380936476735148,-1.7307974407629918,5.24928656815127
7.361421237499994,8.443255309296772,-1.6783045750814791,5.687109829518497
7.445853790592961,8.48205623749871,-1.6214334767862941,6.088269066496248
7.5306743529679485,8.498017880520663,-1.5605507861213317,6.452850244869564
7.615654531773155,8.492442759719587,-1.496022283672636,6.782014958384896
7.700578959370351,8.46703845748127,-1.428202134088787,7.0777139430904885
7.785249343945164,8.423715126239268,-1.357424994657882,7.342397265618995
7.869486495207557,8.364415056760032,-1.284001022001692,7.578752104015675
7.953130645775158,8.290980679047468,-1.2082135009615351,7.789485207458861
8.036040452565633,8.205060637520894,-1.1303186488869466,7.977155828095933
8.118091058940841,8.108049719282132,-1.0505470906059873,8.144057327589778
8.199171556133663,8.00105689440951,-0.9691065173300895,8.292141564391404
8.279182125077758,7.884895760039112,-0.8861851016861754,8.422978712608131
8.35803108267815,7.760092533807056,-0.8019553145600941,8.53774537931715
8.43563200801622,7.626907873426481,-0.7165778607669225,8.637234956850708
8.511901086750486,7.485369860924524,-0.6302055111984155,8.721885486416191
8.586754785359732,7.335316289617567,-0.5429866563342536,8.791821550082995
8.660107948255908,7.176444840666171,-0.4550684408334236,8.846907640826
8.731872396662569,7.00836981254074,-0.3665993644251636,8.886810985684155
8.801956094787975,6.830683797022599,-0.27773125456832204,8.911071891662651
8.870262932758202,6.643022147624132,-0.1886205356516955,8.919179384375832
8.936693154234442,6.44512737224792,-0.09942874180793719,8.910649308891264
9.001144427956921,6.236909856681605,-0.010322248719024554,8.885101310496127
9.063513526523737,6.018500777922112,0.07852876438593671,8.842330409147097
9.123698534302958,5.790292893581722,0.16695206847740768,8.78236845133038
9.181601463238776,5.552965260750156,0.2547757529907115,8.70553078009055
9.237131115846278,5.307488928549598,0.34183106079161696,8.612444155036284
9.290206005131774,5.055112223724092,0.4279555023419798,8.504053307735388
9.340757127369015,4.797326227633882,0.5129960354193337,8.381605412555714
9.388730389645353,4.535813126178351,0.5968120895448908,8.246613923723094
9.434088520907137,4.272381943833435,0.6792782287821217,8.100805318993322
9.476812340345472,4.008897420875736,0.760286281972055,7.946053934706305
9.516901314554229,3.7472082450618136,0.839746821319118,7.7843109979011675
9.554373397004847,3.489080459595356,0.9175899312981297,7.617534035655571
9.5892642016008,3.236140764218759,0.9937652716546854,7.447622124638546
9.621625609242988,2.9898328593289456,1.0682414929010708,7.276361138502751
9.651523937836277,2.751388261151261,1.1410051042860982,7.105381543354097
9.679037820447789,2.521811422805504,1.2120589197196392,6.936129673764852
9.704255934675844,2.301877735632673,1.2814202164572877,6.769852027377686
9.727274712032171,2.0921421580557147,1.3491187367310644,6.607591086371803
9.748196133612728,1.8929558293705884,1.4151946475947825,6.450190554037676
9.767125691906434,1.7044880069067645,1.4796965531351594,6.298307652419486
9.784170571975501,1.5267509140607096,1.5426796296593541,6.152430183013167
9.799438081116108,1.3596254942243904,1.6042039314894858,6.012896309507503
9.813034336058351,1.2028865360181549,1.6643328945845608,5.879915386738077
9.825063201418532,1.0562260972114932,1.7231320484519417,5.753588558343835
9.835625462390647,0.9192745632124814,1.78066793403538,5.6339282245990105
9.844818208022772,0.7916190087783774,1.83700721628137,5.520875810608321
9.852734398110556,0.672818783415199,1.8922159743874531,5.414317529939931
9.859462585944708,0.5624184175101168,1.9463591496868524,5.314098038472143
9.86508677011981,0.4599580590948935,1.9995001300715738,5.220032013793632
9.869686350710758,0.3649817138216497,2.05170045020951,5.131913786585872
9.873336167848974,0.27704358641700816,2.1030195880753686,5.049525202679054
9.876106603713144,0.19571282205854817,2.1535148401021593,4.972641917943961
9.878063731933729,0.12057693007926298,2.203241259281599,4.901038331469624
9.879269501234521,0.05124414721525036,2.2522516425962955,4.834491352481508
9.879781942706673,-0.012655031654375856,2.3005965561211106,4.772783178417666
9.879655392390129,-0.07146695723075762,2.3483243879052873,4.715703239292295
9.878940722817822,-0.1255143943193751,2.39548142029821,4.663049439560478
9.877685578874628,-0.17509641114755692,2.442111914693815,4.614628804895704
9.875934614763151,-0.22048846788641402,2.488258202742772,4.570257618727397
9.873729730084287,-0.2619426019650828,2.533960778930046,4.529761112800039
9.871110304064636,-0.29968762407385785,2.579258390058046,4.492972757968651
9.868113427823898,-0.33392925287552677,2.6241881176377326,4.459733186495998
9.864774135295143,-0.36485012934967614,2.6687854495026926,4.429888765983165
9.861125634001645,-0.39260966464922514,2.7130843371625244,4.403289838771342
9.857199537355154,-0.41734368994202864,2.757117235550238,4.379788640651147
9.853026100455734,-0.43916389486928026,2.8009151219567494,4.359236920960824
9.848634461507041,-0.4581570651919604,2.8445074911663575,4.341483305075481
9.84405289085512,-0.47438416224605795,2.8879223242171124,4.3263704725775165
9.83930904923266,-0.48787932903165887,2.9311860289428875,4.3137322724824205
9.834430255942344,-0.49864896114587326,2.974323351667712,4.303390961950454
9.829443766330884,-0.5066710441725816,3.0173572612872164,4.295154835278196
9.824377055889158,-0.5118950276036881,3.060308809639998,4.288816598923867
9.819258105613121,-0.5142425682969639,3.103196975629237,4.284152931591834
9.814115679930152,-0.5136095162072362,3.1460385049451554,4.280925722098871
9.80897958476808,-0.50986950700174,3.188847762166144,4.27888546842271
9.803880889698062,-0.5028794417653544,3.231636616850371,4.277777210307059
9.79885209528041,-0.49248694903391116,3.2744143889534416,4.277349121844717
9.793927225790071,-0.47853963152084555,3.317187880171889,4.277363499243499
9.789141829474863,-0.46089552367431036,3.359961515164324,4.277609375427933
9.78453287423812,-0.4394337933352225,3.402737608918603,4.27791546743337
9.780138536304769,-0.4140644161219435,3.445516763592937,4.278161756593491
9.775997892143549,-0.3847354521075488,3.488298381158872,4.278287873778855
9.772150537622473,-0.3514367460181174,3.5310812598966606,4.278296726409947
9.768636170162292,-0.31419936067527693,3.57386422716076,4.278252466608824
9.765494176555539,-0.2730907433623483,3.616646751826848,4.278272828762719
9.762763269121915,-0.2282063412032562,3.6594294801144756,4.278516821081827
9.760481205709883,-0.17965893258980348,3.702214648325294,4.279169480009423
9.758684616383984,-0.12756719242545267,3.745006343125388,4.28042570949999
9.75740894445973,-0.07204492897226164,3.787810600220388,4.282475093382312
9.756688495170007,-0.0131920913517828,3.830635351154211,4.285489091265454
9.75655657425649,0.04891181956168526,3.8734902420668655,4.28961138794961
9.757045692452106,0.11421176430824838,3.9163863559463614,4.294951544690431
9.758187810095189,0.18267878952265124,3.959335871393266,4.3015816231771415
9.760014597990414,0.2543096718039617,4.002351687625037,4.3095351697114355
9.762557694708454,0.3291250753291288,4.045447039322151,4.318807845444547
9.765848945461745,0.40716670425920853,4.0886351177765965,4.329359021303143
9.769920612504336,0.48849385752990143,4.131928707989628,4.3411137672941065
9.774805551079636,0.5731796954847397,4.175339845662569,4.353964807309059
9.780537348034484,0.6613074297218713,4.21887949373566,4.36777414957096
9.787150422331703,0.7529665634555209,4.26255723523137,4.3823742216882735
9.794680087966258,0.8482492452587921,4.306380977448252,4.397568431545559
9.803162580418846,0.9472467545388434,4.3503566617637075,4.413131141745677
9.812635047964234,1.0500461100267586,4.394487973181164,4.428807090372568
9.823135509064501,1.1567267795016194,4.438776044084889,4.444310319928242
9.834702776859517,1.267357466536772,4.483219147284172,4.4593226945987405
9.847376351524884,1.3819929554270598,4.527812374230159,4.473492097787896
9.861196281079154,1.500671006474922,4.572547295208038,4.486430410292508
9.876202991143904,1.6234093089426218,4.617411599310962,4.497711376702669
9.89243708423333,1.750202517153745,4.662388713077989,4.5068684748247545
9.909939109404869,1.8810194156974431,4.707457397826236,4.513392910631352
9.928749303561844,2.015800281859886,4.752591326932549,4.516731869325367
9.948907306380443,2.154454536712327,4.797758645625803,4.516287160939735
9.970451851747566,2.2968588000800327,4.8429215172352,4.511414405415283
9.993420439748366,2.4428554881032465,4.8880356612893525,4.501422905853985
10.017848994629398,2.5922521142819304,4.933049890347893,4.485576357836904
10.043771515772217,2.7448214745568045,4.977905653926261,4.463094535243026
10.071219730517786,2.900302912713405,5.022536599278691,4.433156076617018
10.10022275964492,3.0584048726665283,5.066868160044861,4.394902468427684
10.130806808371585,3.2188089474301895,5.110817184729138,4.3474432802138985
10.162994897845886,3.381175629376864,5.1542916175312765,4.289862649574972
10.196806654139655,3.5451519516468744,5.197190244027026,4.221226940682894
10.232258173656124,3.710381185764577,5.239402513433855,4.140593407725359
10.26936198551377,3.876514725967687,5.280808447511109,4.0470195847865496
10.308127132773446,4.04322624787016,5.3212786433589745,3.939572997913993
10.348559395252147,4.2102281805832105,5.360674373338115,3.8173406570085238
10.39066167705798,4.377290481475874,5.3988477799082,3.6794376402272557
10.434434581872738,4.544261656899628,5.435642156310473,3.525013939617696
10.479877198441734,4.711091936946955,5.4708922957066495,3.3532586041657377
10.526988117811204,4.877858494224303,5.504424881748307,3.1634001090878257
10.575766702753446,5.044792600451855,5.536058882839185,2.9547018164365975
10.626214628757966,5.212308639970574,5.565605901003551,2.7264513980510077
10.67833771515767,5.381034933987523,5.592870414984061,2.477943208019973
10.732148064497546,5.551846338885626,5.617649847064261,2.2084528866125437
10.787666527886401,5.725898487805207,5.639734375930386,1.9172040750833934
10.844925512764453,5.904663186011889,5.65890641668122,1.603328254641003
10.903972144624571,6.089963529880783,5.674939699227631,1.2658208415765575
10.96487177992338,6.284005182062689,5.687597907643396,0.9035006379643983
11.027711831744007,6.4893957231985375,5.6966329140230405,0.5149872112620058
11.092605788975993,6.709134877789905,5.70178278613566,0.09872490201630435
11.159697137753891,6.946540522538088,5.702770035155823,-0.3468912326743269
11.229162542979273,7.205041339515672,5.69930112282908,-0.8231828404308824
11.30121295637443,7.487704905242531,5.691069294424771,-1.3304558447458406
11.376090005426855,7.796265575438967,5.677764735977313,-1.866528229273762
11.454052661181244,8.129270549262325,5.659099453684575,-2.4239772139518756
11.535345366673868,8.478860868484464,5.634859681545056,-2.9854377402556227
11.620133975358712,8.826011575733087,5.605005304142499,-3.5167580812112704
11.708394091116043,9.135707194667827,5.569837723330386,-3.960231086418306
11.799751163062721,9.35755491869495,5.530235412466204,-4.235923044940222
11.89332671224967,9.440920576079781,5.487876182016802,-4.264238297574265
11.987735918010468,9.364706676609313,5.445233799041059,-4.009908611144487
12.081382984776562,9.156587187043028,5.405134712929614,-3.5110318828589593
12.172948856646993,8.875654234879818,5.370024394101025,-2.8549768155073982
12.261705398995792,8.577058348238724,5.341474625945951,-2.1269996759317746
12.34747598247818,8.293732844728204,5.320204629186633,-1.3824200355644276
12.430413310925461,8.03849449240139,5.306380428830988,-0.6483039927262129
12.510798255849474,7.812289500520534,5.299897388903727,0.06528488038319546
12.588921150854679,7.61054535686093,5.300550237707559,0.7562401185677075
12.665026604423288,7.426625429427506,5.308112638893236,1.4253405250015123
12.739292858717562,7.2534224720187455,5.3223660441432505,2.0738530616311603
12.81182708343775,7.084022351551299,5.343104574759562,2.7025494731624473
12.882667306953262,6.911962704907559,5.370130069491187,3.3114045834554156
12.951786934002339,6.7313374301671605,5.403244115325741,3.899614044355056
13.01910030830401,6.536855377278905,5.442240255769291,4.465762736708804
13.084468862076799,6.323893520334324,5.486897883136379,5.008065185492223
13.147707797280141,6.088553267929788,5.536978534991301,5.5246384315574115
13.20859332995944,5.827714157068879,5.592224919306876,6.013783561140226
13.266870471530128,5.5390731977166405,5.652362754918278,6.47425810441666
13.322261203507294,5.221156772645056,5.717105335962445,6.905524262520416
13.374472771233744,4.873293580660716,5.786160578587649,7.307960438571864
13.423205707040351,4.49554078845191,5.859240182973367,7.683027075706576
13.46816111492487,4.088560711358493,5.936070453730433,8.033382523105145
13.509046722038455,3.653451420499729,6.016404278961484,8.362949960118472
13.545581236243452,3.1915412836160937,6.100033778562668,8.676940988358343
13.577496649079613,2.704164752421803,6.186803188446252,8.981843154787473
13.604538296603831,2.1924461756637,6.276621619994127,9.285373764443143
13.626462758360468,1.6571341596989764,6.369475357638558,9.596384385970904
13.643034099957458,1.0985602201301814,6.465439201498268,9.924656900724074
13.65401970215876,0.5168607540897134,6.564685770505508,10.28043796185992
13.659188309699656,-0.08726515770049192,6.667490150124108,10.673367595275973
13.658315658122651,-0.7107370192833793,6.7742238260768675,11.110096644144894
13.651208287929817,-1.3442911150577208,6.8853247925183165,11.58931183796666
13.63776537677924,-1.9654663325402595,7.001217910897983,12.09239536641171
13.618110713453838,-2.5282106753477693,7.1221418645621,12.569263937213439
13.59282860670036,-2.9549337581738215,7.247834503934235,12.926954747397867
13.563279269118622,-3.150077657419553,7.377104051408214,13.046578277331308
13.531778492544426,-3.054486456870042,7.507569834181527,12.854758935967963
13.501233627975726,-2.703306191549524,7.636117423541206,12.399218078915505
13.474200566060231,-2.2044766856594675,7.760109604330361,11.817997382379547
